radius,electron_density_mol_cm3,neutron_density_mol_cm3,mass_density_g_cm3
0.0,100.76042716885799,48.960128786128976,149.85802338797717
0.0005,100.75810710099331,48.954530811213885,149.84767191998685
0.001,100.75578708654947,48.95221480054945,149.84422158955454
0.0015,100.74882736373115,48.94720968669465,149.83387107492558
0.002,100.73954848112511,48.937010459105466,149.81317219050905
0.0025,100.72795107960766,48.924394710330645,149.7890271060338
0.003,100.71403596013589,48.90828926390826,149.75798914390296
0.0035,100.69780408365571,48.88997957097863,149.72351006227024
0.004,100.67462022664036,48.867098563269614,149.6786991234656
0.0045,100.65375931906574,48.84313836503692,149.63390159618356
0.005,100.62826852437806,48.81466473722961,149.57878458314042
0.0055,100.59815136254431,48.78276923886343,149.51680221046993
0.006,100.56804321451405,48.74992100507175,149.4548455220202
0.0065,100.53331424076997,48.71253287945583,149.38259516663135
0.007,100.50091135227831,48.672925611334556,149.3069417799764
0.0075,100.46157902783946,48.6312541320801,149.22789056853287
0.008,100.41763758702172,48.585014800910194,149.13857872722193
0.0085,100.37602658280777,48.53664526277345,149.04588839049947
0.009,100.32519210412244,48.48505979067531,148.94639626828635
0.0095,100.27669229965868,48.43125455840092,148.84354327103227
0.01,100.22590812787114,48.374287722450184,148.7339116901036
0.0105,100.17053654533701,48.31512937744643,148.62093869597746
0.011,100.11519555381693,48.25272038746972,148.5012126210839
0.0115,100.0552773145115,48.18713613260533,148.37474992805377
0.012,99.99309248330094,48.1194075893267,148.24498142371027
0.0125,99.92864533167717,48.04851557801606,148.10850560905834
0.013,99.86194028465248,47.975559657560595,147.96874828984178
0.0135,99.79068412838163,47.89940594131399,147.8223152217056
0.014,99.7171827172856,47.820192974776575,147.66922649111532
0.0145,99.64373544408315,47.73896200728118,147.51289965415273
0.015,99.56575699076312,47.65564399517638,147.35334533399293
0.0155,99.48554879545149,47.569278598701025,147.18718521606255
0.016,99.40311634657776,47.47982222048627,147.01444204419153
0.0165,99.31846528166798,47.38732633406172,146.83513944497588
0.017,99.23160138670237,47.29392972907262,146.6560555278274
0.0175,99.14253059545618,47.19648326511462,146.4670720896743
0.018,99.04897827555807,47.09715618636952,146.2749640344366
0.0185,98.95551423297658,46.995876205227276,146.07974430140075
0.019,98.8575857195195,46.89167792616183,145.87806702223784
0.0195,98.75975411823379,46.785642000204966,145.67331388752484
0.02,98.65747588393135,46.67661511823217,145.46214920868402
0.0205,98.55303427809304,46.564715769313615,145.2446017141839
0.021,98.44870323710477,46.45222687810089,145.02737957519787
0.0215,98.34221820459278,46.33675194363507,144.80381368953167
0.022,98.23132452561059,46.21850639072097,144.5739344111752
0.0225,98.11829661043447,46.09851580794844,144.34109645645717
0.023,98.00088553709313,45.97474044316753,144.0986791619724
0.0235,97.88586884057172,45.8513942002239,143.85998146167805
0.024,97.76423358373579,45.72419578668701,143.61175846973435
0.0245,97.64274947369849,45.59643572084018,143.36396377378446
0.025,97.51692539885994,45.46496186126355,143.10671083201407
0.0255,97.39350600555446,45.33194374707146,142.84663030299657
0.026,97.26352385606403,45.19723785328207,142.58373929168712
0.0265,97.13371518178641,45.06106565304823,142.31805506571888
0.027,97.00407975120028,44.922308593628586,142.0463242783711
0.0275,96.86792570272375,44.78196057571344,141.77184785718197
0.028,96.73196275883753,44.63919850798748,141.49138573822935
0.0285,96.59396646742951,44.49489649606601,141.20822697032474
0.029,96.45394607959925,44.34818925809624,140.91914515627852
0.0295,96.31412866209644,44.20107021629378,140.63065515120138
0.03,96.16787065009076,44.05155754360525,140.33629286960894
0.0305,96.02183473848062,43.90061730315553,140.03932217331138
0.031,95.87381298845328,43.748433955108474,139.73976224344744
0.0315,95.72381527258425,43.5938857443805,139.43442176583793
0.032,95.56965098663146,43.43696396049699,139.12334146288126
0.0325,95.42012914216156,43.27985382985721,138.8129551847833
0.033,95.26426038024002,43.12142047828303,138.50007226443057
0.0335,95.10645629761237,42.960809252774766,138.18153093765068
0.034,94.94891361551828,42.79806858660743,137.85737352274415
0.0345,94.78726668549346,42.636098681244114,137.53714341582912
0.035,94.62589495324596,42.47101302391346,137.20817884166593
0.0355,94.46044778571752,42.30483300763231,136.87684935049325
0.036,94.29528989170413,42.13751458059468,136.543175892787
0.0365,94.12608599916936,41.96910389315427,136.20717952990893
0.037,93.9593491959209,41.799720442813566,135.86888143189813
0.0375,93.78858852996102,41.62926568925308,135.52830287525663
0.038,93.61813820251756,41.456875573112114,135.18235251619396
0.0385,93.44369430934654,41.283485141206995,134.83418052460817
0.039,93.26957546720142,41.1101304153457,134.4869052753374
0.0395,93.09149394995755,40.93483432627464,134.1343472015543
0.04,92.91375244741441,40.75778497310956,133.7765525806984
0.0405,92.73421500158057,40.58073191234711,133.41971235365276
0.041,92.55289334268285,40.402812975824354,133.0607601021334
0.0415,92.37192621899078,40.22409611710649,132.69971801626406
0.042,92.18706746818638,40.044511123033544,132.33660837037758
0.0425,92.0025786648233,39.86334072218524,131.96841480070697
0.043,91.8163448947357,39.68229326480409,131.60124563770972
0.0435,91.6283782577292,39.49949536621804,131.22905457077883
0.044,91.43658551912924,39.3161444981377,130.85490304432975
0.0445,91.24729525560112,39.132927630852535,130.48181827375421
0.045,91.05630018420865,38.94908521169219,130.1068013632851
0.0455,90.8636126597269,38.76366057683332,129.72688800484775
0.046,90.66924512771443,38.5776706878695,129.34510568238147
0.0465,90.4690437738119,38.391079585635886,128.96147745184365
0.047,90.27344162247853,38.20387772185173,128.5760264283948
0.0475,90.07618827570067,38.017010247899506,128.19172747372187
0.048,89.87729641527139,37.82876106465169,127.80269147745751
0.0485,89.67471394781808,37.640841520677746,127.41483612685096
0.049,89.47464830528044,37.45168103787943,127.02230811072437
0.0495,89.27091783986027,37.26286391527817,126.63098935913956
0.05,89.06765126117593,37.07357125387379,126.23796937657494
0.0505,88.86280134780016,36.88301404912826,125.84037389897266
0.051,88.6563811640319,36.692977044259734,125.44403067665147
0.0515,88.44840385231672,36.50239470080125,125.04605644053956
0.052,88.24294627613986,36.31158286551693,124.64647466317626
0.0525,88.03391175436745,36.121230412264694,124.24816974012832
0.053,87.82537240453951,35.93058154017793,123.84828584623796
0.0535,87.6132922195497,35.73879726656528,123.44400401283909
0.054,87.40373668676615,35.54836658057522,123.0438750465812
0.0545,87.19066700277571,35.35693301843777,122.63939516757472
0.055,86.97811673239345,35.16520104932562,122.23343036672325
0.0555,86.76408676948252,34.973976395391475,121.82880940338262
0.056,86.55058347726472,34.78261239014678,121.42273193522556
0.0565,86.33561758579603,34.59107711502969,121.0152214862237
0.057,86.12118560562682,34.40014867766371,120.60907869518326
0.0575,85.90333012504105,34.208271757360464,120.19876348698854
0.058,85.68602574010136,34.017099062490836,119.78984418175483
0.0585,85.46730307669776,33.82578723389661,119.37956718281892
0.059,85.24913872607705,33.63520106187278,118.9706953715849
0.0595,85.02761550652457,33.444422376462576,118.56049394763278
0.06,84.80862069189338,33.25359871119601,118.14898635305092
0.0605,84.59018991435238,33.06351719458051,117.7389070462127
0.061,84.36649368897069,32.872668283848654,117.32484793639402
0.0615,84.14338902156163,32.68248935316725,116.9122449717931
0.062,83.92280671955767,32.4930695371523,116.50109303150099
0.0625,83.69894810736889,32.30297197555521,116.08604092977403
0.063,83.47568662342462,32.11437105748714,115.67513099923217
0.0635,83.25302067492427,31.92569830394995,115.26302150747152
0.064,83.0271250448653,31.736437513538952,114.84709118997522
0.0645,82.80374895638273,31.54868256355691,114.4352967101442
0.065,82.58097383868983,31.361001321355985,114.02235326418092
0.0655,82.35310912720534,31.173425197255195,113.60828398038535
0.066,82.12587316014374,30.98594301257903,113.19311198096132
0.0665,81.901150024578,30.79929476332635,112.77945719298594
0.067,81.67328052452794,30.613474377798585,112.3673140719363
0.0675,81.44604501446506,30.427090083172207,111.9515214167519
0.068,81.21757160524328,30.242224131982162,111.53983558875477
0.0685,80.99160399146233,30.05828162938436,111.12966367694958
0.069,80.7625457378269,29.873837221337496,110.71590134104191
0.0695,80.532280954875,29.68953552564595,110.30113973450025
0.07,80.30637084740572,29.506774117640642,109.89046219153121
0.0705,80.07556285067008,29.324270732983194,109.47879282796104
0.071,79.84541821763518,29.141945774208317,109.0661542816742
0.0715,79.61593504173187,28.959896060455172,108.65256917231244
0.072,79.38528348712231,28.77872482494622,108.24055240139468
0.0725,79.15530014220738,28.599172278963742,107.83258093003964
0.073,78.92598307114845,28.419185151903093,107.42120010852565
0.0735,78.69551829158014,28.239482526348983,107.00892470311858
0.074,78.4639197525023,28.061336015677888,106.60068612648413
0.0745,78.23300280094641,27.88353865216484,106.19155979904535
0.075,78.00276543102099,27.706666658299902,105.78400367117925
0.0755,77.77141486911538,27.53008536897832,105.37558532611041
0.076,77.54075047624747,27.353803568917456,104.96632686458315
0.0765,77.30899009151378,27.17910646330815,104.56106546382121
0.077,77.07614764759518,27.00471399073242,104.1549704404348
0.0775,76.84400648827011,26.830736887699018,103.7480636968893
0.078,76.61432859117961,26.658321469450307,103.34512621565389
0.0785,76.38181958112904,26.486235587494406,102.94138332569014
0.079,76.15176962806196,26.314533101908225,102.53685673003773
0.0795,75.91716819572264,26.14315800273414,102.13156810072941
0.08,75.68503219430282,25.972796240153503,101.7278814209861
0.0805,75.45186864411676,25.804006472545264,101.32812349832473
0.081,75.22115541411922,25.635657010937102,100.92761252507398
0.0815,74.98942093324558,25.46826887010359,100.52868461715738
0.082,74.7566790028787,25.300617420808916,100.12672240518629
0.0825,74.52465942515137,25.134595461550898,99.72866374309592
0.083,74.29335995812404,24.969574766852656,99.33218758260611
0.0835,74.05936772836068,24.80492799974157,98.93500954339578
0.084,73.8278124024259,24.640737299602602,98.53715068586186
0.0845,73.59698106145905,24.478143927887395,98.1431515879739
0.085,73.36518212663998,24.316504705265793,97.75072788868492
0.0855,73.13242930327671,24.154757876886762,97.35538980416982
0.086,72.90041489390241,23.99404136492185,96.96165060494636
0.0865,72.66913655588073,23.83482620716055,96.57172744516372
0.087,72.43859195400738,23.676072686646705,96.18115765022611
0.0875,72.2071161110531,23.518351297931066,95.79216745595168
0.088,71.97472264547953,23.361037860270578,95.40255372361236
0.0885,71.74307712173977,23.204745413768276,95.01452466008739
0.089,71.5121771326363,23.049471498263177,94.62807382008232
0.0895,71.28202027871896,22.89520235689324,94.24319478451737
0.09,71.05096814042372,22.741379881441613,93.85771998167075
0.0905,70.8206649299844,22.58856509149654,93.47382185312911
0.091,70.5894828182193,22.436729857748865,93.09149394995755
0.0915,70.35905536145289,22.285395793937393,92.70859513073073
0.092,70.12776532618014,22.13564195583859,92.3293971683536
0.0925,69.89884506826527,21.98628488865791,91.94963296374543
0.093,69.66906787386847,21.837415794479018,91.56932229856284
0.0935,69.4400460218384,21.690071967929992,91.19268439215676
0.094,69.210183387439,21.543230156554856,90.81550452375375
0.0945,68.98108165159479,21.397378523209927,90.43988469993194
0.095,68.75115522347825,21.252480113956285,90.06581846822839
0.0955,68.52199518175462,21.108561459018006,89.69329940286815
0.096,68.29359897191934,20.96564937555866,89.32232110465374
0.0965,68.06439678928481,20.822769541543177,88.94878086379715
0.097,67.83752583769966,20.681830503196345,88.58088195080384
0.0975,67.60985429570168,20.54136201360703,88.21247350500532
0.098,67.38139531712373,20.401418387742858,87.84357457591226
0.0985,67.15370831927896,20.262893577502158,87.47823259612848
0.099,66.92679069358425,20.124903232927174,87.11240421561226
0.0995,66.70063984027101,19.98784552494297,86.74810570601386
0.1,66.47525316835541,19.85177296725016,86.38533066951078
0.1005,66.24757721168552,19.716654566212334,86.02407273503596
0.101,66.02068103905218,19.58254623840295,85.66432555816557
0.1015,65.79607697293407,19.44888927767118,85.30411859847541
0.102,65.56921737208478,19.315739509548283,84.94347034236782
0.1025,65.34464456368227,19.184382470728142,84.58824217567356
0.103,65.11934146560463,19.05309858320449,84.23062049773961
0.1035,64.8948151945546,18.923208480166206,83.87644207487085
0.104,64.6695739829808,18.79389091496722,83.52182974126012
0.1045,64.44511455348375,18.665498286657954,83.1687166356095
0.105,64.22143419260252,18.538477778877613,82.81900337556277
0.1055,63.99853019629434,18.411876919887934,82.46886167513033
0.106,63.77639986990171,18.286215983535538,82.12020030174095
0.1065,63.55211377773337,18.16105390624367,81.77113012534677
0.107,63.33007465728983,18.036838793260564,81.4235437493768
0.1075,63.10881129972933,17.913960861778758,81.07930176502983
0.108,62.886872954249185,17.791506986494426,80.73465615938048
0.1085,62.66571511196947,17.67004847609912,80.39147554653337
0.109,62.4438971876284,17.54946824012895,80.04975369921067
0.1095,62.22286443252172,17.429332472406532,79.70764905902969
0.11,62.00261406738479,17.31046349750674,79.36883396828749
0.1105,61.78172072972075,17.192192217305447,79.02963934080205
0.111,61.56161435672522,17.074764915973166,78.69189431247989
0.1115,61.343704619458286,16.958199170603052,78.35559268824146
0.112,61.123751300023386,16.842524772699257,78.02072829948266
0.1125,60.90458664281602,16.72775836692408,77.68729500396189
0.113,60.68620782001749,16.613813529731406,77.35528668568737
0.1135,60.46861201394851,16.50071329469156,77.02469725480489
0.114,60.25179641703279,16.388119334268726,76.69375468819219
0.1145,60.035758231760916,16.276785418520905,76.3659924136158
0.115,59.819117268719275,16.165927767178424,76.0378800232784
0.1155,59.600513293286284,16.055482199558515,75.70943409897892
0.116,59.38407554097974,15.946287872679573,75.38414266219955
0.1165,59.16842377688089,15.83792903047554,75.06024886522691
0.117,58.95355514669358,15.730389002249176,74.73774670299352
0.1175,58.73946680648679,15.623374806310208,74.41491670972687
0.118,58.52346075563277,15.517121184949485,74.09348118189632
0.1185,58.30824903636771,15.411681823744356,73.77343409610295
0.119,58.09650410893295,15.307492474189793,73.45646083301008
0.1195,57.882862462127754,15.20334113981317,73.13748128700988
0.12,57.670006452151306,15.100317038205676,72.82156364655364
0.1205,57.456610187363005,14.998108583185129,72.50701061359814
0.121,57.24400355255099,14.896378709302871,72.19215398880195
0.1215,57.032183625848226,14.795431599791158,71.87866460688805
0.122,56.82114749619957,14.695605103499927,71.5681844300736
0.1225,56.61089226332155,14.596254862877657,71.25740459234824
0.123,56.40011636203942,14.497663000316326,70.94797429434233
0.1235,56.19012522988537,14.39985989351341,70.63988767577396
0.124,55.97962695159077,14.302784150768073,70.3331389018091
0.1245,55.771201402152755,14.206503327439819,70.02772216295112
0.125,55.562272487587336,14.110681143485888,69.72202624746467
0.1255,55.354126258175626,14.015895337287573,69.41926322258675
0.126,55.14548999538777,13.921851824541077,69.11781492497892
0.1265,54.93890510787864,13.828251824199329,68.81609107823222
0.127,54.73057363028225,13.73503463631137,68.51410674962558
0.1275,54.52303215759174,13.642917656568278,68.21501830379799
0.128,54.316277694063196,13.551519409536008,67.91723548541957
0.1285,54.11030725531273,13.4605576780448,67.61919558751887
0.129,53.90387667135495,13.370274574832894,67.32246357236846
0.1295,53.69947008092392,13.281062699062941,67.02857707286661
0.13,53.49460683897772,13.192545782813617,66.73597349246792
0.1305,53.29052514939763,13.104097983003419,66.44158741214521
0.131,53.085999666177095,13.016705473230243,66.15002307229618
0.1315,52.88225913812766,12.929974014493169,65.85973819863064
0.132,52.67930055264372,12.843955395743338,65.57072717649179
0.1325,52.47712090868179,12.758590774979407,65.2829844158614
0.133,52.27451353770231,12.673624204616555,64.99500776866194
0.1335,52.072688407555844,12.589659501782194,64.70979142643336
0.134,51.87164249811185,12.506034824815814,64.4243432511898
0.1345,51.66899330103552,12.423120345353565,64.14015424645122
0.135,51.469506006141856,12.340908823450565,63.85721885775808
0.1355,51.269608365920476,12.259279604573145,63.575531555152594
0.136,51.06931116171782,12.17828602992243,63.295086833070755
0.1365,50.87096780113183,12.097982635932023,63.015879210234836
0.137,50.6733947679263,12.018096879949072,62.73645865256998
0.1375,50.47426459099091,11.939078905466799,62.45971525332756
0.138,50.27591693173659,11.860106317447503,62.18132900407469
0.1385,50.07834871512004,11.782347370096556,61.90703439568283
0.139,49.88155687818184,11.704952413608673,61.63253059932207
0.1395,49.68553836999906,11.628168263986435,61.35924398829337
0.14,49.489150608713935,11.551762677345971,61.0857625975824
0.1405,49.293539092470084,11.476256883163407,60.81490042658175
0.141,49.09870075307038,11.401330656425023,60.54523929347535
0.1415,48.90463253444508,11.326986502417242,60.27677387270583
0.142,48.709088204545196,11.25297400220707,60.008117108463054
0.1425,48.51544285177033,11.179576579420505,59.74065776160568
0.143,48.32256734552788,11.106746582325963,59.47439049518124
0.1435,48.13045862525546,11.034513459319435,59.20930999602427
0.144,47.93690601562207,10.962628514057826,58.94405372203032
0.1445,47.74523112352065,10.891535026953585,58.68133696187728
0.145,47.55322767403226,10.82101978057928,58.41979114419777
0.1455,47.36308691316373,10.75082959752997,58.158071895528
0.146,47.172620224622214,10.68144387272429,57.89885829788176
0.1465,46.98183767267644,10.612166636921124,57.638145633111066
0.147,46.79290414603543,10.543898720760351,57.38124937427265
0.1475,46.60258422202164,10.475669827732899,57.12286744979202
0.148,46.413038382757186,10.408226855630573,56.86695838784552
0.1485,46.22532784507546,10.341359944988575,56.612195792295196
0.149,46.03731641377959,10.27480254435131,56.357276837804015
0.1495,45.85006967794279,10.208727821088551,56.10350575741397
0.15,45.663584527333214,10.143170323200192,55.85087738236485
0.1505,45.47681071004924,10.078199776016064,55.5993865671708
0.151,45.29080083758439,10.013729626544611,55.34902818951565
0.1515,45.10451320348679,9.94977412695258,55.099797150148426
0.152,44.918991797452634,9.886082413762459,54.85042538052063
0.1525,44.73423346787475,9.822906619934615,54.60218222266101
0.153,44.54920928084715,9.760259592450232,54.35506256867571
0.1535,44.3659719204037,9.698304150976062,54.11030725531273
0.154,44.18247089110461,9.636638547024754,53.865413738942955
0.1545,43.99972883599892,9.575435171416252,53.62162856657276
0.155,43.81673368671795,9.514538924387006,53.37771764051687
0.1555,43.63449961541511,9.45434531862741,53.136139692953186
0.156,43.4530234567623,9.39439621481434,52.89443713027456
0.1565,43.27230205859601,9.33490314116113,52.65383401006846
0.157,43.09134005566678,9.27615659152126,52.415532229591875
0.1575,42.911134824273745,9.217405774279861,52.17590611550421
0.158,42.73069927760722,9.159311992140422,51.93857140712926
0.1585,42.551022438130204,9.101531516014383,51.701125796865504
0.159,42.37210111558107,9.044202560730394,51.4647657077531
0.1595,42.19393213311281,8.987292113821,51.22948617715587
0.16,42.01554487242548,8.930880624591044,50.995282265125205
0.1605,41.83791179636059,8.874895803779483,50.76214905429621
0.161,41.66102971638081,8.819389513106039,50.5300816497845
0.1615,41.48489545742926,8.764279371478226,50.299075179083545
