radius,electron_density_mol_cm3,neutron_density_mol_cm3,mass_density_g_cm3
0.0,100.82308919881021,48.87575977849867,149.84077133856812
0.0005,100.81844623087501,48.86977313643696,149.830421062266
0.001,100.81380347675136,48.86479141971558,149.82007150091079
0.0015,100.80916093642952,48.86135300771887,149.81317219050905
0.002,100.79987649715198,48.852588307386014,149.7959253044877
0.0025,100.78827215051481,48.840149387326605,149.77178299965806
0.003,100.77434869795486,48.82426424626554,149.74074861069877
0.0035,100.75578708654947,48.80495543276774,149.70282642373786
0.004,100.73490936029346,48.783300361973566,149.66146771833706
0.0045,100.71403596013589,48.75940488146996,149.61667534826407
0.005,100.68852990025103,48.73105253760356,149.5615646804363
0.0055,100.66071247458936,48.70046398206668,149.50303183823195
0.006,100.62826852437806,48.66653010919426,149.4376398875063
0.0065,100.59583503117506,48.630450587490195,149.3688371547495
0.007,100.55878098197661,48.589916634054056,149.28975317253003
0.0075,100.52174058148016,48.54829217193439,149.21071106166968
0.008,100.47777282627054,48.50222008667752,149.1214095021726
0.0085,100.43613690324995,48.455203173964726,149.03216138902982
0.009,100.38989500133232,48.40373349692948,148.9326784299578
0.0095,100.34136391780697,48.35021828346112,148.82983490537848
0.01,100.28823774509846,48.29444274500187,148.7236378703164
0.0105,100.23283172746059,48.23434397192781,148.6072508320187
0.011,100.17745631986104,48.172093039306716,148.4875357837962
0.0115,100.11750081792572,48.1067337844582,148.3610847378743
0.012,100.05297348313533,48.03929495276152,148.23132818510123
0.0125,99.98848773724684,47.96863796450012,148.0948649397575
0.013,99.92174274381374,47.89582182967926,147.95512049207295
0.0135,99.85274308360346,47.821137898705196,147.81210437059664
0.014,99.7814934899649,47.742090829724354,147.65902621463601
0.0145,99.70570301320117,47.661054369380956,147.50271017597595
0.015,99.62767606576183,47.57693899621609,147.339774214321
0.0155,99.5474179896738,47.490827780884715,147.17362939959813
0.016,99.46493427677981,47.40270890857481,147.0042869970574
0.0165,99.37794228008235,47.31054000486554,146.82499678319857
0.017,99.29331265324831,47.21741727627738,146.64592523630157
0.0175,99.20190223514376,47.12025072544305,146.45695485221103
0.018,99.11057597038561,47.02233286569065,146.26822797850804
0.0185,99.01705380333203,46.92129879886662,146.07301723546595
0.019,98.92134211084132,46.81847300785311,145.87470809428385
0.0195,98.821171947083,46.7116535154889,145.66660553797135
0.02,98.7188301068396,46.60309733961009,145.45545058339945
0.0205,98.6165942545344,46.49253780627382,145.24125737213973
0.021,98.50992762612668,46.37924638273465,145.02070097133395
0.0215,98.40337637150266,46.26413007266394,144.79714538102007
0.022,98.29241372870969,46.147346933626395,144.5706055116386
0.0225,98.17931552245992,46.02768218121682,144.33777291815085
0.023,98.06408941530547,45.904183822170026,144.09536120546647
0.0235,97.94448792665312,45.78114589020318,143.85666900132637
0.024,97.82728483760035,45.65545398188017,143.61175846973435
0.0245,97.70572237860881,45.52700652185978,143.36066273453062
0.025,97.5820640400269,45.39584766223127,143.10341571615993
0.0255,97.45631816544993,45.26425608595264,142.84663030299657
0.026,97.32625218635015,45.129946363150985,142.58373929168712
0.0265,97.19859784900092,44.994044094074304,142.31805506571888
0.027,97.06440574148881,44.85569172917041,142.0463242783711
0.0275,96.9326308298299,44.71577808253691,141.77184785718197
0.028,96.79434826851883,44.57330459424442,141.49138573822935
0.0285,96.65626297892734,44.42944468237475,141.20822697032474
0.029,96.51837467963063,44.28507893278121,140.92563487216773
0.0295,96.37402557782639,44.13734774503209,140.6338933289837
0.03,96.23210815955326,43.988216642662486,140.33952426937137
0.0305,96.08376226408696,43.83772799170976,140.04254673499193
0.031,95.93564505013998,43.68582530241559,139.74297990742645
0.0315,95.78775616518998,43.53267118355049,139.44084310611382
0.032,95.63348890170727,43.37616482091204,139.1297484770498
0.0325,95.48166860875163,43.21942214596735,138.8193479048065
0.033,95.3256993221237,43.06043559106027,138.5032613831643
0.0335,95.16779346664,42.90118881901548,138.18789457884313
0.034,95.01014918027533,42.739818975531335,137.86689670165634
0.0345,94.85058198923755,42.577255048704785,137.54347738119623
0.035,94.68910246508298,42.41350907749746,137.21765717424935
0.0355,94.52354478336812,42.24771998248111,136.88630479485562
0.036,94.35610391379844,42.080793601577376,136.55260828700747
0.0365,94.19112845819755,41.91277711455932,136.21658871352125
0.037,94.02211147340782,41.74376418527894,135.8782672458986
0.0375,93.85123674398967,41.573672740168604,135.53766516211127
0.038,93.67851550801838,41.402600868434895,135.19480384437955
0.0385,93.50611214346131,41.229604891337274,134.84659978349157
0.039,93.329727973543,41.05563189348753,134.49619562250956
0.0395,93.15582149122136,40.881700292603945,134.14670200043804
0.04,92.97581629484796,40.70593935354745,133.7919550621077
0.0405,92.7961589229068,40.52926864660428,133.43507374994766
0.041,92.61471614609621,40.350815881489154,133.07301601543728
0.0415,92.43149980287207,40.172458185901704,132.71194067483168
0.042,92.24864590991314,39.993239133856164,132.34879758377056
0.0425,92.06403387307117,39.813334367773436,131.98360910057767
0.043,91.87979128993572,39.63265086814935,131.6163976632349
0.0435,91.69169476531987,39.45121177022483,131.24718578709937
0.044,91.49976949522018,39.26805750820347,130.8729825661358
0.0445,91.30824595517245,39.084300092315395,130.49684141302234
0.045,91.11712330429192,38.900751736210196,130.12178132465021
0.0455,90.92221348437256,38.715685876540235,129.74182422455317
0.046,90.72980970559767,38.530874414743025,129.36297660356442
0.0465,90.53155916484849,38.34460158151498,128.9792953691666
0.047,90.33374181443702,38.157756735454676,128.59379109001213
0.0475,90.13635670781417,37.970370451605454,128.20648694136509
0.048,89.93526113329973,37.78247758827882,127.8174061530982
0.0485,89.73668044569064,37.59578274107446,127.43244035301733
0.049,89.5344149251329,37.407697330308004,127.04278333790774
0.0495,89.33054837332953,37.218356112405864,126.64848528539206
0.05,89.12714601812561,37.02940462261108,126.25541100135932
0.0505,88.92420680256267,36.84005019317881,125.86065860551551
0.051,88.7176439795228,36.65026159596583,125.464251495066
0.0515,88.50952295253856,36.46006325264027,125.06621310791623
0.052,88.30189015269752,36.27036372118074,124.66943750722362
0.0525,88.09474443467697,36.079484554495004,124.2681977929986
0.053,87.88403735316268,35.8891594148558,123.8682494402451
0.0535,87.67383424580127,35.69850632747326,123.46674533320444
0.054,87.46413390717548,35.5075715313686,123.06370897443665
0.0545,87.25091698901463,35.31635601273356,122.65916389572192
0.055,87.038219843384,35.125674732021736,122.25594867064228
0.0555,86.82404198273628,34.934758081245384,121.85125316650051
0.056,86.60839690172261,34.74287776733195,121.44230454462446
0.0565,86.39328741891313,34.551699464637444,121.03472840740494
0.057,86.17871220404129,34.36101956890959,120.62852014860503
0.0575,85.96071120194819,34.170180885876704,120.220906956895
0.058,85.74326166361801,33.979284091007,119.81191231900341
0.0585,85.52439289945264,33.78819735398795,119.40155973729014
0.059,85.30411859847541,33.59701152851866,118.98987272753227
0.0595,85.08441162999861,33.407337032047124,118.58233560934097
0.06,84.86527053281607,33.216807475683844,118.17075220527666
0.0605,84.64669384948508,33.02697118764677,117.76059735208078
0.061,84.42479213143609,32.83630328281744,117.34646196273002
0.0615,84.20153329554086,32.64635966886797,116.93378298685356
0.062,83.97886486095484,32.457204476016926,116.52255530259909
0.0625,83.75871385983504,32.268038344724026,116.11010024148699
0.063,83.53336950558655,32.07887153407337,115.69644110848705
0.0635,83.30863141754791,31.890482898064693,115.2842556963603
0.064,83.08449796462111,31.702844355755737,114.87353875476161
0.0645,82.85905959777635,31.51455893348995,114.45901389829586
0.065,82.63423292695782,31.32639563680347,114.04335889248294
0.0655,82.40811875350843,31.1397819175605,113.631829766731
0.066,82.18262330207803,30.953161102789135,113.21917865911112
0.0665,81.95397067291438,30.766024147633907,112.80283120155475
0.067,81.72783604390318,30.58042693788371,112.3906026621402
0.0675,81.5004487467296,30.39493515781254,111.97730217519266
0.068,81.27369409793408,30.2096197020129,111.56295268062343
0.0685,81.04570416954277,30.025139271049373,111.15013640305722
0.069,80.81649291125372,29.841537238306362,110.73884766913267
0.0695,80.58792990201702,29.657420037456664,110.32400010153415
0.07,80.35816297208808,29.47416939885521,109.91070662726378
0.0705,80.1290511383026,29.29188862417743,109.49896142440959
0.071,79.90059253289412,29.110461224103716,109.08875869286938
0.0715,79.6709507808649,28.929231584275005,108.67759023146701
0.072,79.43831068700433,28.748235939247415,108.26547857925846
0.0725,79.20999757609843,28.568197745607435,107.8549296780599
0.073,78.98052204369442,28.38905645569051,107.44593760182971
0.0735,78.7498980096981,28.210220159118006,107.03603182291063
0.074,78.51813943274841,28.031586980390056,106.62523466770875
0.0745,78.28706291430734,27.853964794433846,106.21601412460514
0.075,78.0566664470972,27.677221430862904,105.80836414266754
0.0755,77.82515601867547,27.50079837096739,105.3998517449716
0.076,77.5925455784867,27.32469017055573,104.9904990373511
0.0765,77.35884911031432,27.150174441204612,104.58514431095905
0.077,77.12940835765448,26.97599547306062,104.17895576997172
0.0775,76.89710678549928,26.80274099980598,103.77434478698191
0.078,76.66550486891742,26.629867967845346,103.36892505019665
0.0785,76.43284054920227,26.457975292024912,102.96508918429308
0.079,76.20088231869585,26.286424312685476,102.56046943222516
0.0795,75.96962803456002,26.115818160135056,102.15743970591315
0.08,75.73733162387421,25.945619180050073,101.75365076569759
0.0805,75.50574551839608,25.777007291428216,101.35379157778263
0.081,75.27313429826322,25.608754661466527,100.95317914851809
0.0815,75.03951181707427,25.4409175651916,100.55183486738797
0.082,74.8066144214584,25.27405012250388,100.15208614999685
0.0825,74.57443986099393,25.1081830745686,99.75392665310356
0.083,74.34298589224375,24.943318283452303,99.35735005868446
0.0835,74.11054380075328,24.778869677318387,98.96007140774742
0.084,73.87712736350113,24.61481385505132,98.56211176602433
0.0845,73.64614183350683,24.451796589039954,98.16575248568115
0.085,73.41418806333401,24.290318702363038,97.77323841709246
0.0855,73.18296484808447,24.129289288321544,97.3800515248735
0.086,72.95079011346606,23.969220004791573,96.98844580082202
0.0865,72.71935195883599,23.809585760165774,96.59619065130889
0.087,72.48530989863254,23.65101719555996,96.20552191862149
0.0875,72.25368476956817,23.492883165236545,95.81422695722912
0.088,72.02279979323943,23.33623324481375,95.42672075883333
0.0885,71.7909995366204,23.18015677301164,95.0385934011676
0.089,71.55994531263437,23.024474597095924,94.64986524803258
0.0895,71.32963472022844,22.870314751351323,94.26489758059091
0.09,71.09842824541919,22.717179704138854,93.88149568510872
0.0905,70.86797119872912,22.564502339526474,93.49750030886005
0.091,70.63663466363123,22.412870342803682,93.11507555574538
0.0915,70.40605328762096,22.261654330898512,92.732079741953
0.092,70.17622460560887,22.11199097769977,92.35278572249815
0.0925,69.94392504960081,21.962260105501567,91.9708075868873
0.093,69.71399966460626,21.81402804116869,91.59251831324768
0.0935,69.48483010912265,21.666834840316678,91.21578499826826
0.094,69.25641389852547,21.520598703028135,90.84060124206536
0.0945,69.02715912898279,21.374884678242296,90.46487761631056
0.095,68.79707911629579,21.230113249279896,90.09070801200676
0.0955,68.5677660019269,21.085893617263824,89.71602019011284
0.096,68.33764367915286,20.942650593918458,89.34289069722944
0.0965,68.10986194623645,20.800821954111417,88.97336171603382
0.097,67.88127640890909,20.659535588328314,88.60332094442039
0.0975,67.65190027381016,20.518721555492412,88.23278751630342
0.098,67.42485171529871,20.379341900618513,87.86582679744987
0.0985,67.19701787489024,20.240960201980712,87.50039227053661
0.099,66.96995390282426,20.103082393687533,87.1344712196776
0.0995,66.74365719765558,19.966175743413135,86.7700804272778
0.1,66.5165935479286,19.830203140837835,86.40721349389422
0.1005,66.29030237461652,19.69518520728362,86.04586404684572
0.101,66.06478104973453,19.560776803239424,85.68405276916067
0.1015,65.83699497876097,19.427605492171043,85.32572753406671
0.102,65.61150503924773,19.29456050972661,84.96498791982704
0.1025,65.38528182763515,19.16294990443072,84.60772158078451
0.103,65.15983861552787,19.032268235632305,84.25195749861436
0.1035,64.93367754315696,18.902051678099387,83.89575756308076
0.104,64.71128144159883,18.773213415638622,83.54298719378414
0.1045,64.48667725109915,18.644953050597465,83.18978463877883
0.105,64.2628526316614,18.51758905515105,82.83807535147984
0.1055,64.03980487749878,18.39155423832665,82.489752393533
0.106,63.81606185617134,18.265594094556953,82.13911135377758
0.1065,63.59310055083582,18.14048244740776,81.78996079175054
0.107,63.36945907780644,18.016731020230083,81.44416967156447
0.1075,63.14660409746298,17.893520487428326,81.09797311372523
0.108,62.924532843901936,17.771211159304272,80.75324814135541
0.1085,62.703242560946684,17.64982928656883,80.40998849915373
0.109,62.48129180063901,17.52929814084312,80.06818795840832
0.1095,62.260126679765456,17.40932638086667,79.72600453665314
0.11,62.041172951750134,17.290644193413225,79.38711142187071
0.1105,61.82014224244797,17.172444301922546,79.04783868294342
0.111,61.59989898722072,17.05544801757726,78.71182826295845
0.1115,61.379027060049964,16.93898189148931,78.37544144799
0.112,61.16035534186839,16.82300973806011,78.03869530452386
0.1125,60.941059437607095,16.708312585984398,77.7051852243097
0.113,60.72254983835265,16.594478253855403,77.37310044949268
0.1135,60.506216915829654,16.481113824297616,77.0406609416186
0.114,60.28649012379024,16.36868308670976,76.70964978579133
0.1145,60.07032754114111,16.257337048616552,76.38181958112904
0.115,59.852183670309934,16.146236000738224,76.05188800854549
0.1155,59.63483198341264,16.03668316840758,75.72686884758703
0.116,59.41826960365333,15.927195972053108,75.39976633729427
0.1165,59.203856868171435,15.818898051685583,75.0758054119937
0.117,58.9888595636118,15.71144892885259,74.75323640985444
0.1175,58.77464301631047,15.604874861492128,74.43205335037104
0.118,58.558507609938204,15.498695623618394,74.11054380075328
0.1185,58.3431670108415,15.392947748531114,73.78872394519107
0.119,58.128618296229426,15.288429269539101,73.4699932594902
0.1195,57.91485855405923,15.184782213752447,73.15263933225022
0.12,57.70321353329299,15.081868727633383,72.83665621655742
0.1205,57.49101815675037,14.979740842446859,72.52203799118597
0.121,57.278284202165054,14.878093632682875,72.2071161110531
0.1215,57.065023440959436,14.777244720435847,71.8935617571693
0.122,56.85386579417714,14.677518363198919,71.58301723205514
0.1225,56.6434894938152,14.578266288059165,71.27217298392408
0.123,56.43259222524204,14.479755109274787,70.96267855521018
0.1235,56.22118562213313,14.381973379063693,70.65452808441694
0.124,56.01186069194945,14.284678309469593,70.34609593813393
0.1245,55.80203022455869,14.188488578970638,70.0406229342515
0.125,55.591705758633125,14.092695518835603,69.73487070230964
0.1255,55.38472453264247,13.998036674961202,69.43205190128448
0.126,55.17724342968631,13.904086718517686,69.1305480697334
0.1265,54.96800815951067,13.810557078942391,68.82876863828076
0.127,54.759566321474125,13.717452175743729,68.52672867698129
0.1275,54.553171025558726,13.625382133704953,68.22758513195129
0.128,54.34630227371511,13.534060616614836,67.92974745489806
0.1285,54.14021798003741,13.44350978402959,67.63320994524342
0.129,53.93491516981536,13.353297362138678,67.33641643115662
0.1295,53.729153705891584,13.263821536088813,67.04092533033806
0.13,53.52417722104682,13.175369139921346,66.74826784540333
0.1305,53.319982720589316,13.087322011174342,66.45535770570889
0.131,53.114121169257444,12.999693557868548,66.16220947923348
0.1315,52.91149103083225,12.913041062761275,65.87187112819282
0.132,52.70842025529269,12.827048310760778,65.58280686335254
0.1325,52.503710910936974,12.741519703532497,65.29350763778207
0.133,52.302205168315254,12.656955909662129,65.0069813943203
0.1335,52.100273124367504,12.572763209230146,64.72022225311373
0.134,51.899120713902576,12.489264550948713,64.43472806535219
0.1345,51.69755453296749,12.40667885596871,64.15197038776707
0.135,51.49677119622586,12.32450514829428,63.86898287564867
0.1355,51.295586525134745,12.242683382247188,63.58577954600756
0.136,51.0963643546534,12.161844707286935,63.30528961793409
0.1365,50.897915924680746,12.081328867029121,63.02458577709479
0.137,50.69907082747044,12.001726376383171,62.74657138995208
0.1375,50.499839751862204,11.922512525827427,62.46834497798939
0.138,50.30254983611353,11.843962975979368,62.19135225791773
0.1385,50.10487696073107,11.765979754783617,61.915587759387705
0.139,49.906831715804685,11.688645328699089,61.64104603630618
0.1395,49.71185853028819,11.612261683599446,61.36913472700806
0.14,49.51422661523843,11.536176503445605,61.0970160473397
0.1405,49.318515983216706,11.460423038930363,60.82470342040928
0.141,49.12357891980558,11.385549113481456,60.55499881956049
0.1415,48.92828573900237,11.311035482047398,60.28510199203709
0.142,48.73376895575217,11.237132907621927,60.01640810892663
0.1425,48.54114317170742,11.164061438491704,59.75028759401817
0.143,48.34705224775657,11.091297304654951,59.48397740692212
0.1435,48.15373739301835,11.018888247156871,59.217490629583224
0.144,47.96119550439335,10.947324302505976,58.95355514669358
0.1445,47.768323572228944,10.87606341831426,58.68944464822703
0.145,47.57622725839149,10.805410595335825,58.42651735839359
0.1455,47.3859945340815,10.735565230132142,58.1661072851433
0.146,47.1954357244604,10.666253268853701,57.90685787334121
0.1465,47.00456089866462,10.597263420417267,57.647436553295236
0.147,46.814458037330304,10.52882071920312,57.38917743447663
0.1475,46.62512401836354,10.46068567345562,57.130759810747975
0.148,46.43655573229728,10.393353296495635,56.87481539121565
0.1485,46.247685177675336,10.32626875823059,56.61871388740538
0.149,46.05852226393143,10.259782586193428,56.36376558259543
0.1495,45.87118927792779,10.193831891102747,56.10996528404815
0.15,45.68461822795509,10.128632373201407,55.85859399925906
0.1505,45.49775837834148,10.063711340819664,55.60706843692471
0.151,45.311662825437594,9.999286838294406,55.35667546859209
0.1515,45.12528938295755,9.935189063340049,55.10614111390659
0.152,44.93968252148326,9.871809491418976,54.858003770314724
0.1525,44.75483908795587,9.808685377651875,54.60972631402625
0.153,44.57075594228545,9.746090288580591,54.36257251684059
0.1535,44.38640791071925,9.684011362825693,54.116537293278846
0.154,44.202822356612145,9.622398470704054,53.871615580878
0.1545,44.019996126299496,9.561298053360444,53.627802340086866
0.155,43.836916685230555,9.500697737385194,53.38509255416235
0.1555,43.65459867270983,9.440331364756116,53.14225756927752
0.156,43.47303892195116,9.380463886178687,52.900527177961074
0.1565,43.29223427933911,9.321060456084552,52.65989635570244
0.157,43.11118892113602,9.262170818727327,52.42036010084629
0.1575,42.92991217391682,9.203725443999888,52.18191343448839
0.158,42.75038202361309,9.14575541336281,51.944551400372426
0.1585,42.571602656929336,9.08800479481627,51.70707845159881
0.159,42.39161868299962,9.030721067211775,51.47069114895901
0.1595,42.21336763178718,8.973899569867628,51.23538452924547
0.16,42.03586610225485,8.917535085175057,51.00115365194076
0.1605,41.85814711221278,8.861850003564857,50.7691625888249
0.161,41.68021974790648,8.806169335355055,50.535899475316775
0.1615,41.50400435745132,8.750959924264238,50.30370810846251
