radius,electron_density_mol_cm3,neutron_density_mol_cm3,mass_density_g_cm3
0.0,100.87417596048365,47.95707311865821,148.95668547621003
0.0005,100.8672080599342,47.95151645626346,148.94639626828635
0.001,100.86488553337686,47.948177463425736,148.9395371911897
0.0015,100.86024064069355,47.94333074074054,148.92924916778665
0.002,100.85095149701803,47.934472128553395,148.9121040413062
0.0025,100.83934127049257,47.92217721553941,148.88810418015322
0.003,100.8254107629603,47.90641553523983,148.8572528993312
0.0035,100.80916093642952,47.888492341804685,148.82298119600736
0.004,100.78827215051481,47.86716615811585,148.7818655672434
0.0045,100.76506746485522,47.84250693396857,148.7339116901036
0.005,100.73954848112511,47.81469608051619,148.67912618452544
0.0055,100.71171696045597,47.785714766942036,148.62436085895592
0.006,100.68157482323409,47.75240231195863,148.55935323494725
0.0065,100.64912414888013,47.7168642583028,148.49095487502373
0.007,100.61205047086119,47.67811646866806,148.415753051067
0.0075,100.57499044877432,47.63720309584179,148.33717368338253
0.008,100.53331424076997,47.59311465250446,148.2518085145953
0.0085,100.48934142329416,47.545696462478254,148.15966930978186
0.009,100.44307502543042,47.496292688528605,148.06417802698036
0.0095,100.39451823329973,47.44359281570916,147.96193423406154
0.01,100.34367438969485,47.38886687820587,147.85635648664484
0.0105,100.29054699369682,47.33086701136106,147.7440500522677
0.011,100.23283172746059,47.27086165209967,147.62842961251835
0.0115,100.1751496752416,47.20763511087333,147.50610659049474
0.012,100.11289034278809,47.14130875505603,147.37709780131004
0.0125,100.04836597952276,47.07298240820064,147.24481136705643
0.013,99.98158101575926,47.00147510721385,147.1058690421671
0.0135,99.9102394902416,46.926969503634965,146.96028989796503
0.014,99.84124777345343,46.85145595571495,146.81485482202746
0.0145,99.76770911940942,46.77176380043161,146.65943244717803
0.015,99.69192911276375,46.691267865379785,146.50417460686847
0.0155,99.61161927569788,46.60663194613393,146.33897203970042
0.016,99.52908236644222,46.52010667135382,146.17059001901055
0.0165,99.44661384621031,46.43155261825415,145.9990399529022
0.017,99.359637872555,46.3400648097784,145.82097576422407
0.0175,99.27273796805586,46.24564932080139,145.63642178770743
0.018,99.1790627826055,46.14931750539649,145.44875226659101
0.0185,99.08547599040939,46.05009708718362,145.25463520236656
0.019,98.9896981597831,45.95009044419881,145.06077720832357
0.0195,98.89173581717404,45.84613172866512,144.85717121419714
0.02,98.79159563347079,45.74036060592872,144.6505202599386
0.0205,98.68928442324628,45.63182548873826,144.43751236425217
0.021,98.5848091439849,45.52248951194173,144.22481813742476
0.0215,98.47817689529386,45.410374318964756,144.00580525244436
0.022,98.36712990515316,45.29442533092389,143.7771928302498
0.0225,98.256208134979,45.178909596181256,143.5522487099904
0.023,98.1431515879739,45.059659306075574,143.31775614035502
0.0235,98.02571077247752,44.93865681993186,143.0803520294985
0.024,97.91066494033608,44.81602911469442,142.8400521240356
0.0245,97.78899887128993,44.69080110375054,142.59358896765693
0.025,97.66523513629443,44.56286174782259,142.3409958747241
0.0255,97.53938208605618,44.43336236883594,142.0855785511554
0.026,97.41144820484799,44.30340280436899,141.83061954958143
0.0265,97.2859221886807,44.170791133145855,141.5695983765307
0.027,97.15608362140983,44.03569467903474,141.30255020692005
0.0275,97.01971622167669,43.89812562272387,141.0295109819859
0.028,96.88577107763003,43.760079251077336,140.7569993513398
0.0285,96.74978308613706,43.61955756895665,140.47854487048082
0.029,96.60953683012706,43.47757387292528,140.19741304415078
0.0295,96.46949387185784,43.33425687115884,139.91362216386622
0.03,96.32743586991874,43.189497993134886,139.62719066782168
0.0305,96.18337232872177,43.041468222134,139.331720528296
0.031,96.03510156161543,42.89304178633854,139.03687564380078
0.0315,95.88485150449891,42.74233382550535,138.7362655029596
0.032,95.73924537217633,42.59136589301292,138.4363053080869
0.0325,95.58505623587382,42.43816161037409,138.13063235676915
0.033,95.43111542291727,42.28268358778214,137.81928738479297
0.0335,95.27522871490831,42.126948037649065,137.50864418106255
0.034,95.11959664780579,41.96916722283124,137.1923830755989
0.0345,94.95984564245863,41.810162220862054,136.8736976808494
0.035,94.79818010107186,41.649992255417004,136.55260828700747
0.0355,94.6367897891476,41.48777811375715,136.22599854711927
0.036,94.4713235727136,41.325413254882584,135.90017000008817
0.0365,94.30614666310032,41.16100451775585,135.5688774561556
0.037,94.1390908968442,40.996549544796984,135.23839252526489
0.0375,93.97016728848874,40.829146812669904,134.8993943967504
0.038,93.79938696184887,40.66172018054769,134.56124602494322
0.0385,93.62676114879118,40.49324887350902,134.22085469480962
0.039,93.45230118800391,40.323860710978806,133.8782417358168
0.0395,93.28031414206238,40.15360041502886,133.5334285764987
0.04,93.10221212124596,39.981467852489516,133.18337004650132
0.0405,92.92231051437469,39.80846034919107,132.83117061068992
0.041,92.74489203724198,39.63454813727524,132.47685212837692
0.0415,92.56354950171509,39.45984485186552,132.1204365469999
0.042,92.38043437961296,39.283353015078184,131.7589120038726
0.0425,92.19555860190431,39.10714309839,131.39837670963595
0.043,92.0089341973176,38.93006829071599,131.0358107116015
0.0435,91.8226875622126,38.75132145939316,130.66822750485278
0.044,91.632597997649,38.571928716432566,130.29867517445246
0.0445,91.44290195285174,38.39275739067241,129.93016800191134
0.045,91.2535986131638,38.21287023155726,129.5597197742021
0.0455,91.06049357835292,38.03149691716663,129.18437844630034
0.046,90.86570489581459,37.85037914508375,128.8101245019827
0.0465,90.67133288827283,37.667808826047185,128.43104018688155
0.047,90.47529336980999,37.485483549880534,128.05307150549717
0.0475,90.2775989638236,37.302531375623204,127.67327535490128
0.048,90.08033653298426,37.11916862586657,127.29167461935602
0.0485,89.88143551303537,36.9344062952373,126.90537010168073
0.049,89.68090867156047,36.750010173820606,126.52023794017751
0.0495,89.47876885998674,36.56592623191041,126.13627457698196
0.05,89.2791403739024,36.380615305605396,125.74768543676589
0.0505,89.07585507281209,36.19478349528092,125.35740693236494
0.051,88.86893998466988,36.00945109144514,124.96833972112192
0.0515,88.66454709454781,35.822879718508425,124.57474303256647
0.052,88.45655062653216,35.63684017866337,124.18238600482101
0.0525,88.24904209345922,35.45035292500921,123.78841436709362
0.053,88.04202035069173,35.26356480190766,123.39285135584964
0.0535,87.8334617927953,35.07643133283849,122.99572024332207
0.054,87.62337965324859,34.88982932779238,122.59986726902378
0.0545,87.41379999310388,34.7028952413173,122.20247447100172
0.055,87.20271367071625,34.51490582337419,121.80076051271142
0.0555,86.98813103460216,34.327522008965204,121.40036710136584
0.056,86.77607449911463,34.140698477420266,121.00128989595494
0.0565,86.56054855505492,33.95290866804318,120.59797070006591
0.057,86.34754611613359,33.76568675094148,120.19599584004234
0.0575,86.133084509045,33.578283001096544,119.79260247660582
0.058,85.91519892853314,33.39151598229083,119.39056295365731
0.0585,85.69786451980931,33.203883511733544,118.98439316756155
0.059,85.48304818587162,33.016921802936,118.57960518159362
0.0595,85.26484364419078,32.83057702219339,118.17619429483359
0.06,85.04719609273216,32.64411904765777,117.77144400342002
0.0605,84.82815084687553,32.457617140459654,117.36537750208359
0.061,84.60772158078451,32.27103459918367,116.95801799661105
0.0615,84.38592202872677,32.08439076194838,116.54938870167355
0.062,84.16470392526942,31.89847331183415,116.14218708055891
0.0625,83.94213288485076,31.712586557994896,115.73374324664358
0.063,83.7182227213768,31.527415895624205,115.32673581038567
0.0635,83.49683238713833,31.34225437402795,114.91851359329642
0.064,83.27602751301235,31.15781232156237,114.51173636099197
0.0645,83.05198177759546,30.973451099500323,114.1037716319728
0.065,82.82853881458571,30.789162294013444,113.69464239065644
0.0655,82.60379495771788,30.60564829840268,113.28698011869356
0.066,82.37966091241888,30.42219403138008,112.87818041005576
0.0665,82.15235168132808,30.23886458713125,112.46826616095883
0.067,81.92566966192969,30.055660679178093,112.05726026158402
0.0675,81.69961312356585,29.87391227765053,111.6503271631843
0.068,81.47418034035402,29.692350054397817,111.24231035366459
0.0685,81.24749877684029,29.51092058462576,110.83323254867642
0.069,81.01958233187368,29.329643060060324,110.42311645375416
0.0695,80.79230524081542,29.149242586738584,110.01451791099065
0.07,80.56566571014237,28.969649571734074,109.60743130498909
0.0705,80.33781208358016,28.790901416709612,109.20185104113169
0.071,80.10875827289044,28.61178023417504,108.79276133832896
0.0715,79.88035752514615,28.433482534058427,108.38520415886117
0.072,79.65260797837786,28.25606995034571,107.9791737616213
0.0725,79.42185018034044,28.078873319349068,107.57218745733981
0.073,79.19176089979048,27.902604702840023,107.16673513267787
0.0735,78.96233819999767,27.726557186621488,106.76035272961519
0.074,78.73176726303437,27.55144272743694,106.35551135192122
0.0745,78.50367718902018,27.376569098415988,105.94976554434503
0.075,78.27264323252662,27.20261924386463,105.54556765523834
0.0755,78.04228920200549,27.02903425431844,105.14049080215887
0.076,77.81261309645514,26.85690613218576,104.73938029263077
0.0765,77.581826512624,26.684465051124064,104.33499510320627
0.077,77.35172442511237,26.513682312321627,103.93456434688572
0.0775,77.11875327214372,26.342480745044778,103.53090253307502
0.078,76.8882541885166,26.172276293973606,103.12880846394053
0.0785,76.65844404013927,26.003037041550055,102.72827605066412
0.079,76.42756093797777,25.834697412752146,102.32929922807536
0.0795,76.19561873002485,25.667340774271967,101.93187195456007
0.08,75.96438041981727,25.499728203879553,101.53131241457616
0.0805,75.73210005504488,25.33310383216591,101.13232694501777
0.081,75.50226843037831,25.16745130858117,100.73490936029346
0.0815,75.27313429826322,25.003257779684137,100.34136391780697
0.082,75.04123968557998,24.838959215202856,99.94475322442234
0.0825,74.80833692724167,24.67557818455486,99.54971018007063
0.083,74.57615702069882,24.512628910252655,99.15394545818745
0.0835,74.3446977224627,24.35120417005974,98.76202817179092
0.084,74.11566335257596,24.190215302847164,98.36939491809962
0.0845,73.88223079093068,24.03017035771404,97.9783225970335
0.085,73.6512293044701,23.870533770157024,97.58655796362255
0.0855,73.42095007133317,23.711889008942354,97.1963597943429
0.086,73.18802032281,23.553709115378407,96.80549277120615
0.0865,72.95750943897117,23.397037168016947,96.41841767763003
0.087,72.72772456558234,23.24133870853249,96.03289029714108
0.0875,72.49699409182432,23.085558108671528,95.64449974782718
0.088,72.2653316261912,22.93127132482981,95.25987339993779
0.0885,72.03440943260186,22.77741592473206,94.87460920094412
0.089,71.8042251455341,22.624559648637323,94.49090314493057
0.0895,71.57477640702476,22.472721795955476,94.10874893022275
0.09,71.34441808179677,22.321311960070542,93.725982135293
0.0905,71.11480114844828,22.171407035767263,93.34692152830848
0.091,70.88429103095243,22.02193536265149,92.9672533000501
0.0915,70.65452808441694,21.87299480988356,92.58699737049507
0.092,70.42388829835349,21.725472369300547,92.21041996787812
0.0925,70.19400139695799,21.57844938627799,91.83325964835811
0.093,69.96486492256545,21.432396255326637,91.45764199512966
0.0935,69.73487070230964,21.28734470028057,91.08356069835813
0.094,69.50563253784567,21.14274540761203,90.70892079988225
0.0945,69.27714794380519,20.99912354958555,90.33582184965715
0.095,69.05100438281849,20.856983579633688,89.9663290369708
0.0955,68.8208448895854,20.71485444831286,89.59422146745412
0.096,68.59145255959344,20.573628091048757,89.22365296310518
0.0965,68.36439896608525,20.433920070708368,88.85666313495781
0.097,68.1365280529558,20.29462596490234,88.489145227887
0.0975,67.90941667481583,20.156306667218214,88.12314740279149
0.098,67.68150385783709,20.018998738407994,87.75866337249678
0.0985,67.45435594585511,19.88218300844811,87.39367453894273
0.099,67.22797037174948,19.74671183617227,87.03220766381376
0.0995,67.00234457701531,19.61177936052722,86.67024016412633
0.1,66.7759384212285,19.477821061138094,86.30977808954928
0.1005,66.55029730952641,19.344762674308086,85.95081517901016
0.101,66.32389147514479,19.212204585386843,85.59137436055931
0.1015,66.09673392820878,19.080515759883053,85.23343670064973
0.102,65.87187112819282,18.950273158953838,84.87895030072441
0.1025,65.64777331724403,18.820605298028916,84.52399195272267
0.103,65.42293145683927,18.691776384992007,84.17051801785719
0.1035,65.19735843182752,18.563428385700384,83.81659231782734
0.104,64.97405923030779,18.436414540230384,83.46607668304557
0.1045,64.75152482255577,18.309924666314977,83.11511306402014
0.105,64.52678095267096,18.184448883873237,82.76562519977766
0.1055,64.30281713865651,18.05978691159448,82.4176068849679
0.106,64.07963067304296,17.93555901947872,82.06916220628206
0.1065,63.85721885775808,17.812783146751784,81.72407242462526
0.107,63.635579004094396,17.6908387883249,81.38043369905583
0.1075,63.413248271864106,17.56896102278018,81.03450806514377
0.108,63.1902392955718,17.44877979850007,80.69376886489974
0.1085,62.969464496438,17.32914471578933,80.35261221856173
0.109,62.7480161997852,17.21040862252681,80.01289791230745
0.1095,62.52734668295022,17.092064129219043,79.67278529342155
0.11,62.3088879058007,16.97508219469041,79.33594515548454
0.1105,62.08833304324832,16.858562185528747,78.99871007485801
0.111,61.86713431925562,16.74288591165153,78.6629084869488
0.1115,61.64814313252601,16.628177606095743,78.32853429837736
0.112,61.42992710922356,16.514223430354917,77.99558144166524
0.1125,61.21107405220781,16.400782077759022,77.66225561501662
0.113,60.99300069106378,16.288962814507798,77.33391558275193
0.1135,60.77430485181642,16.17719150032768,77.00341748448622
0.114,60.55639316598933,16.066313039685472,76.67433181946068
0.1145,60.339262821930525,15.956305997078337,76.34665255142973
0.115,60.122911018069495,15.847072867841932,76.02037366994472
0.1155,59.90595556139752,15.738781040746872,75.69548919024346
0.116,59.68978299546356,15.631250615152329,75.37199315314065
0.1165,59.47439049518124,15.52411977110953,75.04815155747296
0.117,59.25841075461701,15.418222808687407,74.7274220149276
0.1175,59.04457487492946,15.31321009376352,74.40806315823292
0.118,58.82880140008149,15.208232599742198,74.08665723434524
0.1185,58.61516609994128,15.104819210364594,73.77003678213742
0.119,58.40096186365087,15.00181165554867,73.45307811586663
0.1195,58.18888025193538,14.899629519262714,73.13748128700988
0.12,57.97623384172634,14.79789162606778,72.82156364655364
0.1205,57.76170444404748,14.696920094781944,72.50701061359814
0.121,57.54929397548361,14.59711121181471,72.19547863690636
0.1215,57.33766461626528,14.49774149553978,71.88362998063286
0.122,57.12549811562604,14.399107676440316,71.57312835586681
0.1225,56.914116694468085,14.301256926799184,71.26396794410032
0.123,56.70351744776257,14.204217681846082,70.95614295195843
0.1235,56.49369748123026,14.107945057764756,70.64964761109086
0.124,56.284653911301454,14.012440537076651,70.34447617806359
0.1245,56.07509267348655,13.917638118195915,70.0406229342515
0.125,55.86502532776188,13.822913705550427,69.73487070230964
0.1255,55.65574493195803,13.729670119617452,69.43365065176752
0.126,55.447248538019615,13.636840129947869,69.13213987775426
0.1265,55.23826128632159,13.544390626421352,68.83035349749343
0.127,55.03132886093212,13.45298625303118,68.53146249919753
0.1275,54.82390925979446,13.362299551948876,68.23386941416697
0.128,54.6172714477182,13.272361698403635,67.9375686063041
0.1285,54.411412478047644,13.18251310483036,67.63943948096019
0.129,54.20508128274264,13.093709710092567,67.34416926887178
0.1295,53.99953250715837,13.00593061508029,67.05173192169306
0.13,53.79600186877311,12.918537736571333,66.75902726214326
0.1305,53.58953639959827,12.831832409059894,66.46760036254487
0.131,53.38509255416235,12.745835909023828,66.17744564502122
0.1315,53.18142866109669,12.660205101258013,65.88704043340734
0.132,52.97854174488645,12.575537411116521,65.59942006647444
0.1325,52.775213633175866,12.491629166559788,65.31305526474723
0.133,52.57266588120437,12.408076466313045,65.02644324081015
0.1335,52.36968962345368,12.324859983731535,64.73959824940304
0.134,52.16989948809835,12.242920415685642,64.45698687573842
0.1345,51.968478259255775,12.16135360786692,64.17413152024393
0.135,51.76664270698368,12.08014238737867,63.891046250820345
0.1355,51.566778400373785,11.99990199669233,63.61067440168272
0.136,51.367685743980495,11.920339791859858,63.331532902936885
0.1365,51.16818355403078,11.841355963100805,63.05361635545992
0.137,50.96828259054277,11.762697466489305,62.77547390847591
0.1375,50.770331605453265,11.684768551406144,62.49855840492965
0.138,50.57198494744029,11.60771292490116,62.224297183417676
0.1385,50.37441317892481,11.530697798684141,61.94838660282753
0.139,50.176457903670865,11.454627436695791,61.67511955119188
0.1395,49.98043135782393,11.37917809570426,61.40305793662412
0.14,49.78402430467163,11.304051273955944,61.13078883705736
0.1405,49.58838906819801,11.229784656996324,60.86112837702365
0.141,49.392385300616404,11.156128699583922,60.59265744464183
0.1415,49.19602346695273,11.082512738716515,60.322592770637776
0.142,49.00157056919287,11.009768889525255,60.05511459334332
0.1425,48.80901012475759,10.937641056641896,59.7888224488774
0.143,48.614967527521756,10.866390627662065,59.5250816780947
0.1435,48.42169635608301,10.795106918292603,59.25977524565859
0.144,48.228083038164755,10.724706662852464,58.99700973871401
0.1445,48.03524387975961,10.654621000051812,58.73405695079814
0.145,47.84317578540415,10.585105215754039,58.47227615734398
0.1455,47.652972909630144,10.516396964120307,58.21300252319678
0.146,47.462433319157014,10.447984663857248,57.95354409684224
0.1465,47.27156711736161,10.379883621130523,57.69391362364631
0.147,47.08146846801641,10.312590437007712,57.436768803929084
0.1475,46.89213428447355,10.2458280045077,57.18077009225263
0.148,46.70248611563373,10.179380932924838,56.92460162787103
0.1485,46.51360495022622,10.113671188794607,56.67088567234476
0.149,46.32548768622124,10.048272561984135,56.417001477808554
0.1495,46.13706887663362,9.983160305737298,56.16296146344458
0.15,45.949416419427365,9.918805080427664,55.91135275705602
0.1505,45.76252719763145,9.85499858359534,55.660871251574946
0.151,45.576398106952446,9.791723685980976,55.41151189716867
0.1515,45.38998090075623,9.728685742388063,55.16199950002677
0.152,45.20432618076362,9.666150843089357,54.91361063180863
0.1525,45.018394229474225,9.604116144671178,54.666340233377944
0.153,44.83425937836107,9.542593158822244,54.42018326837909
0.1535,44.649849565514884,9.481815437507644,54.17638216607259
0.154,44.4651743967161,9.421064560508052,53.931189606543384
0.1545,44.28228268394189,9.361007087644332,53.68834294997831
0.155,44.09912779968068,9.30123087465555,53.445359168144485
0.1555,43.916730457930726,9.241953341656771,53.203475087195244
0.156,43.73408049942676,9.182918746791138,52.96146623321577
0.1565,43.55219018325032,9.124776422199833,52.722986142282274
0.157,43.37105635004414,9.06669690055159,52.48316290829697
0.1575,43.1896813629766,9.009305841781243,52.24563355452383
0.158,43.01005520623654,8.952127124491824,52.00798167405475
0.1585,42.83018990289127,8.895398276394687,51.771410810552034
0.159,42.65009471872504,8.839382563341083,51.53710271873143
0.1595,42.47075681056982,8.783414898454408,51.3014924877462
0.16,42.29314681866428,8.728259377742662,51.06931116171782
0.1605,42.11434009870685,8.673141234183609,50.8358395157711
0.161,41.936289336759316,8.618478829061894,50.60343522335277
0.1615,41.75995288416652,8.564274499593074,50.37209340488292
0.162,41.58340039842196,8.510511962799661,50.141809203089394
