radius,pp fraction,pep fraction,hep fraction,7Be fraction,8B fraction,13N fraction,15O fraction,17F fraction
0.0,-2.08128e-12,-3.27914e-12,-8.59661e-13,-1.02198e-11,-2.55371e-11,-1.60835e-11,-2.17914e-11,-2.36935e-11
0.0005,0.000724044,0.00114099,0.00029921,0.00355521,0.00888051,0.00559523,0.00757955,0.00824653
0.001,0.00207161,0.00326579,0.000856849,0.0101715,0.0253911,0.016009,0.0216795,0.0236149
0.0015,0.00456918,0.0072039,0.00189071,0.0224313,0.0559705,0.0353108,0.0478119,0.0521079
0.002,0.00812201,0.0128044,0.00336151,0.0398596,0.0994174,0.0627447,0.0849587,0.0925978
0.0025,0.0126882,0.0200008,0.00525269,0.0622407,0.15516,0.0979486,0.132626,0.144554
0.003,0.0182682,0.0287931,0.0075651,0.0895634,0.223135,0.140881,0.190758,0.207914
0.0035,0.0248592,0.0391753,0.0102984,0.121797,0.303219,0.191467,0.259252,0.282561
0.004,0.0324611,0.0511458,0.0134534,0.158921,0.395308,0.249638,0.338017,0.368397
0.0045,0.0410714,0.0646991,0.0170303,0.200901,0.499255,0.315303,0.426931,0.465282
0.005,0.0506905,0.0798337,0.0210304,0.247713,0.614932,0.388381,0.525882,0.573095
0.0055,0.0613156,0.096543,0.0254539,0.299314,0.742159,0.468761,0.634721,0.691667
0.006,0.0729394,0.114813,0.0302993,0.355638,0.880683,0.556288,0.75323,0.82076
0.0065,0.0855711,0.134656,0.035572,0.416696,1.03044,0.650917,0.881362,0.960315
0.007,0.0991957,0.156045,0.0412678,0.482376,1.19106,0.752422,1.0188,1.10999
0.0075,0.113819,0.178988,0.0473911,0.552669,1.36242,0.86072,1.16544,1.26965
0.008,0.129432,0.203464,0.0539397,0.627486,1.54418,0.97561,1.32101,1.439
0.0085,0.146044,0.229485,0.0609197,0.706823,1.73622,1.09701,1.48539,1.61792
0.009,0.163635,0.25702,0.0683259,0.790544,1.93808,1.22465,1.65821,1.80599
0.0095,0.182212,0.286071,0.0761631,0.878627,2.14958,1.3584,1.83931,2.00302
0.01,0.201767,0.316625,0.0844303,0.970983,2.37036,1.49804,2.0284,2.20869
0.0105,0.22229,0.34866,0.0931266,1.06751,2.60004,1.64334,2.22515,2.42265
0.011,0.243793,0.382191,0.10226,1.16821,2.83847,1.79422,2.42944,2.64474
0.0115,0.266265,0.417195,0.111827,1.27294,3.08521,1.9504,2.64091,2.87457
0.012,0.289695,0.453651,0.121829,1.38163,3.33986,2.11163,2.85923,3.11177
0.0125,0.314081,0.491552,0.132266,1.49419,3.60208,2.27771,3.08409,3.35601
0.013,0.339416,0.53088,0.14314,1.61051,3.87145,2.44837,3.31518,3.60691
0.0135,0.365716,0.571654,0.15446,1.73061,4.14785,2.62355,3.55237,3.86435
0.014,0.392935,0.613799,0.16621,1.85418,4.43042,2.80271,3.79499,4.12754
0.0145,0.421092,0.657337,0.178403,1.98127,4.71903,2.9858,4.04288,4.39637
0.015,0.450183,0.702256,0.19104,2.11176,5.01329,3.17256,4.29575,4.67047
0.0155,0.480215,0.748563,0.204128,2.24563,5.31297,3.36286,4.55341,4.94963
0.016,0.511149,0.796189,0.217654,2.38259,5.61722,3.55615,4.81515,5.23305
0.0165,0.542977,0.845116,0.231619,2.52255,5.92564,3.75224,5.08067,5.52039
0.017,0.57573,0.895385,0.246042,2.66557,6.23823,3.95111,5.34992,5.81164
0.0175,0.609367,0.94693,0.260907,2.81138,6.55415,4.15223,5.62226,6.10603
0.018,0.643916,0.999774,0.276231,2.96,6.87333,4.35561,5.89766,6.4035
0.0185,0.679336,1.05386,0.292002,3.1112,7.19503,4.56075,6.17542,6.70337
0.019,0.715637,1.1092,0.308228,3.26492,7.51896,4.76753,6.45536,7.00536
0.0195,0.752779,1.16572,0.324897,3.42088,7.84435,4.97542,6.73686,7.30877
0.02,0.790786,1.22344,0.342022,3.57913,8.17109,5.18439,7.01985,7.61353
0.0205,0.829625,1.28231,0.359595,3.73941,8.4985,5.39404,7.30371,7.91897
0.021,0.869294,1.34232,0.37762,3.90164,8.82619,5.60413,7.58818,8.22479
0.0215,0.90988,1.40361,0.396139,4.06612,9.15472,5.815,7.8737,8.53146
0.022,0.951197,1.46586,0.415076,4.23193,9.48186,6.0253,8.15848,8.83698
0.0225,0.993388,1.52929,0.434497,4.39961,9.80868,6.23573,8.44339,9.14233
0.023,1.03632,1.5937,0.454352,4.5685,10.1336,6.44526,8.7271,9.44602
0.0235,1.08007,1.6592,0.474676,4.73882,10.457,6.65413,9.00996,9.74844
0.024,1.12461,1.72571,0.495464,4.91041,10.7782,6.86207,9.29149,10.0491
0.0245,1.1699,1.79321,0.516706,5.08298,11.0967,7.06866,9.5712,10.3473
0.025,1.21597,1.8617,0.538414,5.25653,11.4124,7.27378,9.84898,10.6431
0.0255,1.26278,1.93112,0.560584,5.4309,11.7247,7.47719,10.1244,10.9359
0.026,1.3103,2.00143,0.5832,5.6058,12.0329,7.67847,10.3969,11.2252
0.0265,1.35864,2.07277,0.606315,5.78161,12.3378,7.87803,10.6671,11.5116
0.027,1.40757,2.14478,0.629836,5.9573,12.6369,8.07445,10.9331,11.7929
0.0275,1.4573,2.2178,0.653866,6.13369,12.9322,8.26887,11.1964,12.0708
0.028,1.50766,2.29155,0.67833,6.30995,13.2216,8.46012,11.4553,12.3435
0.0285,1.55867,2.36603,0.70324,6.48607,13.5052,8.64816,11.7099,12.6112
0.029,1.61046,2.44145,0.728657,6.66251,13.7839,8.83359,11.961,12.8745
0.0295,1.66278,2.51744,0.754482,6.83825,14.0554,9.01502,12.2067,13.1315
0.03,1.71578,2.59419,0.780784,7.01371,14.3207,9.19299,12.4476,13.383
0.0305,1.76939,2.67161,0.807538,7.18862,14.5791,9.36718,12.6834,13.6284
0.031,1.82367,2.74974,0.834771,7.36306,14.8307,9.53766,12.9143,13.8679
0.0315,1.87846,2.82839,0.86242,7.5364,15.0744,9.70367,13.1391,14.1003
0.032,1.93389,2.9077,0.890552,7.70903,15.311,9.86569,13.3585,14.3264
0.0325,1.98986,2.98755,0.919118,7.88055,15.5394,10.0232,13.5719,14.5454
0.033,2.04636,3.0679,0.94813,8.05082,15.7596,10.1761,13.7789,14.7571
0.0335,2.10343,3.14879,0.977601,8.21988,15.9718,10.3245,13.9798,14.9617
0.034,2.16111,3.23029,1.00755,8.3879,16.176,10.4685,14.1748,15.1594
0.0345,2.21913,3.31198,1.03787,8.55373,16.3704,10.6069,14.3621,15.3484
0.035,2.27768,3.39416,1.06866,8.71813,16.5563,10.7404,14.543,15.5299
0.0355,2.33674,3.47676,1.0999,8.88086,16.7334,10.869,14.7172,15.7036
0.036,2.3963,3.55978,1.13158,9.04185,16.9016,10.9926,14.8844,15.8693
0.0365,2.45623,3.64299,1.16367,9.20058,17.0601,11.1106,15.0442,16.0266
0.037,2.51661,3.72656,1.1962,9.35736,17.2094,11.2234,15.197,16.1757
0.0375,2.5774,3.81038,1.22916,9.51195,17.3492,11.3307,15.3423,16.3164
0.038,2.63865,3.8945,1.26256,9.66441,17.4799,11.4328,15.4807,16.449
0.0385,2.70026,3.97883,1.29639,9.81452,17.6009,11.5294,15.6114,16.573
0.039,2.76215,4.06319,1.33058,9.96178,17.7117,11.62,15.7341,16.6878
0.0395,2.82448,4.14784,1.36524,10.1068,17.8134,11.7056,15.85,16.7951
0.04,2.88703,4.23244,1.40025,10.2488,17.9048,11.7851,15.9576,16.8929
0.0405,2.94986,4.31708,1.43566,10.388,17.9864,11.859,16.0575,16.9821
0.041,3.01309,4.40192,1.47151,10.5247,18.0589,11.9274,16.1503,17.0632
0.0415,3.07662,4.48679,1.50777,10.6586,18.1217,11.9904,16.2356,17.1358
0.042,3.14029,4.5715,1.54436,10.7891,18.1743,12.0472,16.3126,17.1991
0.0425,3.20425,4.65625,1.58137,10.9167,18.2176,12.0987,16.3823,17.2542
0.043,3.26848,4.74098,1.61878,11.0413,18.2517,12.1448,16.4447,17.3012
0.0435,3.33285,4.8255,1.65653,11.1625,18.2759,12.1849,16.4991,17.3393
0.044,3.3974,4.90988,1.69465,11.2804,18.2906,12.2195,16.546,17.369
0.0445,3.46203,4.99394,1.73308,11.3948,18.2957,12.2483,16.5849,17.3899
0.045,3.52685,5.07784,1.7719,11.5058,18.2917,12.2717,16.6166,17.4028
0.0455,3.59187,5.16162,1.81111,11.6136,18.279,12.29,16.6414,17.4081
0.046,3.65694,5.24505,1.85062,11.7178,18.2571,12.3026,16.6585,17.4049
0.0465,3.72197,5.32801,1.89041,11.818,18.2257,12.3094,16.6677,17.3931
0.047,3.78709,5.41067,1.93053,11.9147,18.1858,12.3111,16.67,17.3738
0.0475,3.85241,5.49319,1.97105,12.0083,18.1383,12.3083,16.6662,17.3477
0.048,3.91765,5.57516,2.01183,12.0978,18.0817,12.2998,16.6547,17.3134
0.0485,3.98292,5.65673,2.05293,12.1836,18.0169,12.2862,16.6364,17.2717
0.049,4.04823,5.73795,2.09435,12.2659,17.9445,12.268,16.6117,17.2231
0.0495,4.11355,5.81875,2.13607,12.3445,17.8644,12.2449,16.5805,17.1674
0.05,4.17878,5.89899,2.17806,12.4192,17.7764,12.2168,16.5424,17.1043
0.0505,4.24385,5.97856,2.22028,12.4898,17.6806,12.1838,16.4978,17.0344
0.051,4.3089,6.05766,2.26279,12.5568,17.5779,12.1464,16.4472,16.9581
0.0515,4.37395,6.13632,2.30562,12.6203,17.4685,12.1046,16.3907,16.8755
0.052,4.43883,6.21432,2.34868,12.6797,17.3522,12.0584,16.3282,16.7866
0.0525,4.50359,6.29171,2.39198,12.7353,17.2292,12.008,16.2599,16.6916
0.053,4.56813,6.36834,2.43549,12.787,17.0997,11.9532,16.1857,16.5905
0.0535,4.63248,6.44427,2.47922,12.8348,16.9641,11.8942,16.1059,16.4836
0.054,4.69671,6.51957,2.52319,12.8788,16.8228,11.8314,16.0209,16.3712
0.0545,4.76074,6.59417,2.56739,12.9191,16.6758,11.7648,15.9307,16.2537
0.055,4.82455,6.66801,2.61179,12.9555,16.5234,11.6944,15.8355,16.131
0.0555,4.88809,6.74107,2.65636,12.9881,16.3657,11.6204,15.7353,16.0031
0.056,4.95136,6.81331,2.70112,13.0169,16.2032,11.5429,15.6304,15.8706
0.0565,5.01438,6.88476,2.74606,13.042,16.036,11.4621,15.5211,15.7338
0.057,5.07706,6.95533,2.79114,13.0633,15.8642,11.378,15.4073,15.5923
0.0575,5.13935,7.0249,2.83634,13.0805,15.6879,11.2906,15.2889,15.4464
0.058,5.20152,7.09386,2.88179,13.0946,15.5082,11.2005,15.167,15.2971
0.0585,5.26341,7.16203,2.92742,13.1053,15.3249,11.1077,15.0414,15.1444
0.059,5.32475,7.22902,2.97307,13.1118,15.1376,11.0118,14.9116,14.9874
0.0595,5.3857,7.29505,3.01883,13.1147,14.9469,10.9132,14.778,14.827
0.06,5.44624,7.36009,3.06469,13.114,14.7531,10.812,14.6411,14.6634
0.0605,5.50633,7.42409,3.11062,13.1097,14.5563,10.7084,14.5008,14.4967
0.061,5.56608,7.48721,3.1567,13.1021,14.3572,10.6026,14.3577,14.3275
0.0615,5.62551,7.5495,3.20292,13.0914,14.156,10.4949,14.2119,14.1559
0.062,5.68435,7.61058,3.24914,13.0769,13.9525,10.385,14.0631,13.9815
0.0625,5.74266,7.67051,3.29538,13.059,13.7468,10.273,13.9115,13.8048
0.063,5.80067,7.72966,3.34177,13.0383,13.5398,10.1596,13.7581,13.6266
0.0635,5.85818,7.78774,3.38821,13.0142,13.3313,10.0445,13.6022,13.4464
0.064,5.91504,7.84455,3.4346,12.9867,13.1212,9.92748,13.4438,13.264
0.0645,5.97127,7.90007,3.48094,12.9558,12.9097,9.80892,13.2834,13.08
0.065,6.02707,7.95464,3.52736,12.9221,12.6976,9.68921,13.1213,12.895
0.0655,6.08236,8.00818,3.57382,12.8855,12.4849,9.56837,12.9578,12.7088
0.066,6.13695,8.06041,3.62018,12.8457,12.2714,9.44619,12.7924,12.5214
0.0665,6.19086,8.11133,3.66647,12.8027,12.0574,9.32288,12.6255,12.3329
0.067,6.2445,8.16155,3.71291,12.7576,11.8439,9.19919,12.458,12.1444
0.0675,6.29738,8.21037,3.75922,12.7094,11.6301,9.07438,12.2891,11.955
0.068,6.34951,8.25784,3.80542,12.6582,11.4162,8.94871,12.119,11.765
0.0685,6.40106,8.30419,3.85158,12.6045,11.2028,8.82253,11.9482,11.5748
0.069,6.45201,8.34943,3.89769,12.5483,10.99,8.69587,11.7767,11.3845
0.0695,6.50231,8.39346,3.94374,12.4895,10.7779,8.5688,11.6047,11.1943
0.07,6.55193,8.43622,3.98968,12.4283,10.5665,8.44139,11.4323,11.0042
0.0705,6.60081,8.4777,4.03549,12.3645,10.356,8.31372,11.2595,10.8144
0.071,6.64904,8.51801,4.08121,12.2985,10.1466,8.18593,11.0865,10.6249
0.0715,6.69658,8.55711,4.12682,12.2303,9.93844,8.0581,10.9135,10.4361
0.072,6.74334,8.59486,4.17225,12.1598,9.73155,7.93021,10.7404,10.2477
0.0725,6.78945,8.63142,4.21758,12.0872,9.52622,7.80254,10.5675,10.0603
0.073,6.83476,8.66669,4.26273,12.0125,9.32232,7.67498,10.3949,9.87359
0.0735,6.87937,8.70077,4.30773,11.9359,9.12016,7.54771,10.2226,9.68791
0.074,6.92305,8.73328,4.35245,11.857,8.91957,7.42057,10.0505,9.50306
0.0745,6.96612,8.76477,4.39709,11.7765,8.72107,7.29404,9.87921,9.31959
0.075,7.00862,8.79527,4.44167,11.6946,8.52478,7.16818,9.70887,9.13762
0.0755,7.05,8.82404,4.48583,11.6104,8.3301,7.04248,9.53873,8.95652
0.076,7.09053,8.85144,4.52972,11.5244,8.13747,6.91732,9.36929,8.77673
0.0765,7.13043,8.8778,4.57353,11.4371,7.94726,6.79295,9.201,8.59864
0.077,7.16977,8.90318,4.61725,11.3486,7.75958,6.66956,9.03394,8.42241
0.0775,7.208,8.92694,4.66054,11.2582,7.57394,6.54666,8.86757,8.24746
0.078,7.24535,8.94937,4.70355,11.1664,7.39065,6.42454,8.70227,8.07415
0.0785,7.28199,8.97061,4.74637,11.0734,7.20995,6.30339,8.53831,7.90275
0.079,7.3178,8.99054,4.78892,10.9791,7.03174,6.18316,8.37558,7.73315
0.0795,7.35286,9.00937,4.83124,10.8837,6.8562,6.064,8.21422,7.56553
0.08,7.387,9.02682,4.87326,10.7871,6.68316,5.94573,8.05417,7.39973
0.0805,7.42027,9.04299,4.91493,10.6894,6.51276,5.8285,7.89551,7.23588
0.081,7.45267,9.05789,4.95631,10.5906,6.34503,5.71236,7.73828,7.07404
0.0815,7.48425,9.07154,4.99741,10.491,6.18004,5.59734,7.58258,6.9143
0.082,7.51508,9.08406,5.03825,10.3906,6.01789,5.48357,7.42858,6.75675
0.0825,7.54506,9.09538,5.0788,10.2894,5.85848,5.37097,7.27618,6.60132
0.083,7.574,9.10525,5.11888,10.1873,5.70171,5.25946,7.12523,6.4479
0.0835,7.60206,9.11388,5.15862,10.0844,5.54777,5.14922,6.97602,6.2967
0.084,7.62941,9.12144,5.19812,9.98105,5.39672,5.04034,6.82864,6.1478
0.0845,7.65571,9.12759,5.23716,9.87688,5.24835,4.93263,6.6828,6.00099
0.085,7.68128,9.13268,5.27593,9.77239,5.10292,4.82634,6.53891,5.85656
0.0855,7.70598,9.13659,5.31433,9.66743,4.96031,4.7214,6.39689,5.71439
0.086,7.7297,9.13919,5.35229,9.56191,4.82046,4.61777,6.25665,5.57443
0.0865,7.75246,9.14049,5.38981,9.45592,4.68338,4.51548,6.11818,5.43671
0.087,7.77429,9.14057,5.42691,9.34955,4.54907,4.41458,5.9816,5.30126
0.0875,7.79539,9.13965,5.46373,9.24311,4.41764,4.3152,5.84706,5.16823
0.088,7.81582,9.13778,5.50028,9.1367,4.28914,4.21733,5.71459,5.03763
0.0885,7.83496,9.13434,5.53615,9.02967,4.1632,4.12074,5.58384,4.90909
0.089,7.85312,9.12962,5.57153,8.92241,4.03998,4.02557,5.45501,4.78284
0.0895,7.87072,9.12409,5.60672,8.81542,3.91966,3.932,5.32834,4.65908
0.09,7.88745,9.11749,5.64149,8.70842,3.80205,3.8399,5.20368,4.53762
0.0905,7.90307,9.10952,5.67564,8.6012,3.68704,3.74918,5.08087,4.41835
0.091,7.91799,9.10065,5.70951,8.49424,3.57479,3.66001,4.96017,4.30146
0.0915,7.93213,9.0908,5.74301,8.38747,3.46523,3.57236,4.84152,4.1869
0.092,7.94526,9.07974,5.77594,8.2807,3.35821,3.48611,4.72477,4.07455
0.0925,7.95757,9.06764,5.80847,8.17415,3.25382,3.40136,4.61004,3.96449
0.093,7.96889,9.05433,5.84046,8.06773,3.15195,3.31804,4.49725,3.85663
0.0935,7.97923,9.03986,5.87191,7.96148,3.05259,3.23614,4.38639,3.75096
0.094,7.98889,9.02459,5.90302,7.85567,2.95577,3.15578,4.2776,3.64757
0.0945,7.9978,9.00843,5.93374,7.7503,2.86146,3.07692,4.17085,3.54643
0.095,8.00572,8.99108,5.96389,7.64521,2.76952,2.99947,4.066,3.44741
0.0955,8.01246,8.97239,5.9933,7.54019,2.67988,2.92334,3.96296,3.35042
0.096,8.01845,8.95287,6.02232,7.43569,2.59264,2.8487,3.86191,3.2556
0.0965,8.02397,8.9328,6.05113,7.33203,2.50783,2.77562,3.76299,3.16306
0.097,8.02851,8.91158,6.07936,7.22874,2.42526,2.70393,3.66594,3.07258
0.0975,8.03212,8.88937,6.10702,7.12587,2.34491,2.63361,3.57075,2.9841
0.098,8.03486,8.8662,6.13414,7.02352,2.26675,2.56469,3.47745,2.89764
0.0985,8.03678,8.84213,6.16077,6.92179,2.19079,2.49718,3.38605,2.81323
0.099,8.03797,8.81725,6.18697,6.82073,2.11695,2.43106,3.29655,2.73084
0.0995,8.03813,8.79126,6.2125,6.72011,2.04516,2.36626,3.20883,2.65033
0.1,8.03751,8.76443,6.23756,6.62012,1.97539,2.30279,3.12291,2.57173
0.1005,8.0362,8.7369,6.26218,6.52097,1.9077,2.24074,3.0389,2.49514
0.101,8.03408,8.70855,6.28626,6.42262,1.84204,2.18007,2.95678,2.42048
0.1015,8.03126,8.67942,6.30993,6.32484,1.7782,2.12063,2.8763,2.34756
0.102,8.02744,8.64926,6.33292,6.22766,1.71621,2.06243,2.79753,2.27641
0.1025,8.02275,8.61827,6.35529,6.13134,1.65614,2.00559,2.72058,2.20714
0.103,8.01739,8.58661,6.37723,6.03583,1.59788,1.95002,2.64535,2.13963
0.1035,8.01118,8.55406,6.39861,5.94088,1.54129,1.89561,2.57168,2.07374
0.104,8.00443,8.52104,6.4196,5.84704,1.48654,1.84255,2.49986,2.0097
0.1045,7.99679,8.48714,6.43994,5.754,1.43349,1.79071,2.42968,1.94733
0.105,7.98856,8.45269,6.45991,5.66183,1.38207,1.74006,2.36111,1.88659
0.1055,7.97966,8.41762,6.47939,5.57056,1.33226,1.69061,2.29416,1.82748
0.106,7.96956,8.38134,6.49796,5.47981,1.28395,1.6422,2.22863,1.76984
0.1065,7.95882,8.34448,6.51612,5.38986,1.23711,1.59491,2.1646,1.71369
0.107,7.94745,8.30708,6.5338,5.30093,1.19183,1.54879,2.10217,1.65914
0.1075,7.93537,8.26907,6.55093,5.21301,1.14804,1.50383,2.0413,1.60612
0.108,7.92277,8.2306,6.56767,5.12605,1.10567,1.45996,1.98191,1.55457
0.1085,7.90951,8.19155,6.58392,5.04001,1.06469,1.41718,1.92399,1.50446
0.109,7.89525,8.15159,6.59934,4.95471,1.02503,1.37541,1.86744,1.45571
0.1095,7.88021,8.11097,6.61416,4.87029,0.986668,1.33467,1.81228,1.40831
0.11,7.86472,8.07002,6.62865,4.78698,0.949622,1.295,1.75857,1.36231
0.1105,7.84872,8.02865,6.64268,4.70467,0.913824,1.25635,1.70624,1.31763
0.111,7.83188,7.98654,6.65607,4.6231,0.879168,1.21861,1.65516,1.27415
0.1115,7.8142,7.94375,6.66875,4.54245,0.845708,1.18185,1.60539,1.23194
0.112,7.79608,7.90065,6.68105,4.46285,0.8134,1.14607,1.55695,1.19098
0.1125,7.77731,7.85703,6.6928,4.38419,0.782196,1.11122,1.50976,1.15122
0.113,7.75785,7.81287,6.70394,4.30648,0.752074,1.07729,1.46382,1.11262
0.1135,7.73797,7.76846,6.71473,4.22982,0.723009,1.04427,1.41911,1.0752
0.114,7.71712,7.72325,6.72466,4.154,0.694955,1.01211,1.37558,1.03887
0.1145,7.69623,7.67811,6.73454,4.07929,0.66788,0.980819,1.33322,1.00363
0.115,7.67425,7.63208,6.74346,4.00535,0.641743,0.950341,1.29195,0.969423
0.1155,7.65193,7.5859,6.75203,3.93255,0.616571,0.92073,1.25186,0.936309
0.116,7.62893,7.53922,6.76001,3.8606,0.59227,0.89189,1.21281,0.904164
0.1165,7.60542,7.4922,6.76751,3.78961,0.568835,0.863834,1.17483,0.872998
0.117,7.58149,7.44494,6.77457,3.71966,0.546262,0.836571,1.13791,0.842817
0.1175,7.5569,7.39722,6.781,3.65063,0.524504,0.810058,1.10202,0.813567
0.118,7.53166,7.34907,6.78682,3.58248,0.503521,0.784262,1.06709,0.785206
0.1185,7.50598,7.30066,6.79222,3.51526,0.483297,0.759177,1.03313,0.75772
0.119,7.47986,7.25201,6.7971,3.44907,0.463839,0.734829,1.00016,0.731132
0.1195,7.45319,7.20304,6.80146,3.38385,0.445099,0.711165,0.96812,0.705384
0.12,7.42602,7.15379,6.80529,3.31954,0.427053,0.688173,0.936991,0.680449
0.1205,7.39838,7.1043,6.80863,3.25616,0.409681,0.665842,0.906753,0.656313
0.121,7.37026,7.05454,6.81147,3.1937,0.392952,0.644143,0.877373,0.632945
0.1215,7.34159,7.00445,6.81369,3.13214,0.376852,0.623071,0.848835,0.610327
0.122,7.31248,6.95421,6.81542,3.07159,0.361384,0.602648,0.821172,0.588478
0.1225,7.28311,6.90389,6.81681,3.01196,0.346492,0.582814,0.794304,0.567324
0.123,7.25305,6.85317,6.81751,2.95316,0.332161,0.563553,0.768202,0.546851
0.1235,7.2227,6.80234,6.81785,2.89527,0.318372,0.544864,0.742861,0.527041
0.124,7.19194,6.75137,6.81768,2.83831,0.305122,0.526752,0.718287,0.507897
0.1245,7.16058,6.70008,6.81682,2.78222,0.292388,0.509202,0.694451,0.489397
0.125,7.1289,6.64869,6.81557,2.72698,0.280135,0.492191,0.671306,0.471493
0.1255,7.09706,6.5974,6.81404,2.67275,0.268378,0.475766,0.648896,0.454216
0.126,7.06487,6.546,6.81207,2.61939,0.257082,0.45989,0.627166,0.437523
0.1265,7.03221,6.49441,6.80953,2.56686,0.246223,0.444564,0.606084,0.421386
0.127,6.99911,6.44262,6.80642,2.51514,0.235788,0.429792,0.585634,0.405787
0.1275,6.96556,6.39063,6.80277,2.46421,0.225757,0.415577,0.565789,0.390703
0.128,6.93169,6.33861,6.79867,2.41419,0.216135,0.402026,0.546579,0.376155
0.1285,6.89753,6.28661,6.79413,2.36506,0.206909,0.389171,0.527984,0.362123
0.129,6.86304,6.23446,6.78914,2.31665,0.198033,0.376975,0.509928,0.348543
0.1295,6.82834,6.18238,6.78384,2.26911,0.189516,0.365608,0.492442,0.335442
0.13,6.79317,6.13012,6.77788,2.22235,0.181344,0.355038,0.475502,0.322796
0.1305,6.75766,6.07783,6.77141,2.1764,0.173507,0.345458,0.459102,0.310597
0.131,6.72201,6.02568,6.76466,2.1313,0.165993,0.337082,0.443228,0.298834
0.1315,6.68611,5.97348,6.7575,2.08694,0.158777,0.329962,0.427837,0.28747
0.132,6.64976,5.92116,6.74973,2.04331,0.151855,0.324183,0.412929,0.276504
0.1325,6.6132,5.86893,6.74158,2.00049,0.145221,0.320007,0.398504,0.265934
0.133,6.5766,5.81691,6.73322,1.95848,0.138864,0.317752,0.38455,0.255749
0.1335,6.53971,5.76488,6.72434,1.91723,0.132773,0.317723,0.371043,0.245929
0.134,6.50243,5.71277,6.7149,1.87667,0.12693,0.320324,0.357956,0.236454
0.1345,6.46493,5.66068,6.7051,1.83679,0.121324,0.325898,0.345272,0.227308
0.135,6.42725,5.60872,6.6949,1.79768,0.115955,0.334391,0.333003,0.2185
0.1355,6.38934,5.55683,6.68425,1.75929,0.110815,0.346223,0.321135,0.210016
0.136,6.35121,5.505,6.67318,1.7216,0.10589,0.362022,0.309643,0.201838
0.1365,6.31302,5.45333,6.66186,1.68459,0.101168,0.382508,0.29851,0.193952
0.137,6.27471,5.40181,6.65022,1.64828,0.0966465,0.408144,0.287732,0.186355
0.1375,6.23609,5.35035,6.63804,1.61268,0.0923235,0.43927,0.277312,0.179049
0.138,6.19734,5.29903,6.62549,1.57774,0.0881834,0.476754,0.26722,0.172009
0.1385,6.15832,5.24769,6.61249,1.54338,0.0842115,0.519903,0.257429,0.165215
