radius,density_log_10,pp fraction,pep fraction,hep fraction,7Be fraction,8B fraction,13N fraction,15O fraction,17F fraction
0.0005,2.00309,0.000669362,0.00104688,0.000285247,0.0032952,0.00821191,0.00482595,0.00685125,0.0075192
0.001,2.00308,0.0020581,0.00322,0.000877044,0.0101355,0.0252218,0.0148405,0.0210653,0.0231136
0.0015,2.00306,0.00461968,0.0072277,0.00196886,0.0227473,0.05658,0.0333111,0.0472824,0.0518818
0.002,2.00301,0.00821137,0.0128461,0.00350025,0.0404189,0.100495,0.0591827,0.0840049,0.0921789
0.0025,2.00296,0.0128283,0.0200668,0.00546958,0.063116,0.156846,0.0923876,0.131136,0.143895
0.003,2.00291,0.0184692,0.028887,0.00787697,0.0908185,0.225549,0.132875,0.188604,0.20695
0.0035,2.00284,0.0251326,0.0393029,0.0107225,0.123502,0.306494,0.180584,0.256325,0.281245
0.004,2.00275,0.0328179,0.0513123,0.0140069,0.161144,0.399571,0.235452,0.334205,0.366677
0.0045,2.00265,0.0415225,0.0649095,0.01773,0.203706,0.504629,0.297391,0.422123,0.463109
0.005,2.00255,0.051244,0.0800891,0.0218921,0.251153,0.621504,0.366311,0.519947,0.57039
0.0055,2.00242,0.0619843,0.0968508,0.0264951,0.303463,0.750065,0.442137,0.627577,0.688403
0.006,2.0023,0.0737365,0.115183,0.0315378,0.360571,0.890072,0.524729,0.744808,0.816928
0.0065,2.00216,0.086498,0.135078,0.0370203,0.422429,1.04131,0.613968,0.87148,0.955765
0.007,2.00201,0.100273,0.15654,0.0429463,0.489018,1.20363,0.709778,1.00747,1.10479
0.0075,2.00184,0.115051,0.179548,0.0493131,0.560248,1.37671,0.811964,1.15251,1.2637
0.008,2.00166,0.130829,0.204098,0.0561213,0.636059,1.56029,0.920387,1.3064,1.43227
0.0085,2.00148,0.147608,0.230185,0.0633738,0.716411,1.75415,1.03492,1.46898,1.61029
0.009,2.00129,0.165379,0.257793,0.0710685,0.80121,1.95795,1.15537,1.63995,1.79745
0.0095,2.00107,0.184143,0.286918,0.0792085,0.890414,2.17143,1.28159,1.81911,1.99353
0.01,2.00086,0.2039,0.317558,0.0877961,0.983962,2.39433,1.41345,2.00626,2.19828
0.0105,2.00062,0.224628,0.349674,0.0968244,1.0817,2.62611,1.55061,2.20097,2.41121
0.011,2.00038,0.246352,0.383299,0.106307,1.18367,2.86678,1.69312,2.40324,2.63234
0.0115,2.00012,0.269033,0.418368,0.116229,1.28965,3.11558,1.84052,2.61247,2.86098
0.012,1.99987,0.292697,0.454919,0.126607,1.39969,3.37251,1.99282,2.82865,3.09713
0.0125,1.99959,0.317311,0.492895,0.137427,1.51355,3.63688,2.14965,3.05124,3.34016
0.013,1.9993,0.3429,0.532328,0.148704,1.6313,3.90863,2.31096,3.28021,3.59003
0.0135,1.99901,0.369424,0.573153,0.160425,1.75269,4.18703,2.47632,3.51494,3.84605
0.014,1.9987,0.396908,0.615403,0.172602,1.87774,4.47197,2.64571,3.75535,4.10816
0.0145,1.99838,0.425326,0.659031,0.185229,2.00627,4.76285,2.81877,4.00099,4.37579
0.015,1.99806,0.454683,0.704037,0.198312,2.13822,5.05936,2.99531,4.25161,4.64868
0.0155,1.99772,0.484958,0.750383,0.211843,2.27342,5.36091,3.17505,4.50672,4.92629
0.016,1.99737,0.516156,0.798081,0.225831,2.41182,5.66725,3.3578,4.76613,5.20841
0.0165,1.99701,0.548278,0.847111,0.240278,2.55333,5.97796,3.54336,5.02951,5.49465
0.017,1.99664,0.581306,0.897452,0.255182,2.6978,6.29255,3.73145,5.29648,5.78457
0.0175,1.99624,0.615208,0.949039,0.270531,2.84499,6.6103,3.92164,5.56649,6.07753
0.018,1.99585,0.650022,1.00192,0.286347,2.995,6.93121,4.114,5.83944,6.37351
0.0185,1.99544,0.685719,1.05606,0.302621,3.14762,7.25469,4.3081,6.11501,6.672
0.019,1.99503,0.722302,1.11145,0.319359,3.30274,7.58034,4.50384,6.39283,6.97267
0.0195,1.99461,0.75971,1.16799,0.336537,3.46004,7.90718,4.70054,6.67205,7.27457
0.02,1.99417,0.798012,1.22576,0.354192,3.61971,8.23559,4.89849,6.95302,7.5781
0.0205,1.99372,0.837154,1.2847,0.372303,3.78146,8.56465,5.09719,7.23501,7.88241
0.021,1.99327,0.877113,1.34475,0.390866,3.94505,8.89376,5.29628,7.51761,8.18701
0.0215,1.9928,0.917942,1.40599,0.409907,4.11066,9.22314,5.49589,7.80095,8.49205
0.022,1.99233,0.959566,1.46829,0.429398,4.27787,9.55167,5.69537,8.0841,8.79653
0.0225,1.99184,1.00198,1.53165,0.449341,4.44655,9.87899,5.89459,8.36689,9.10017
0.023,1.99134,1.04522,1.59611,0.469761,4.61681,10.2051,6.09347,8.64922,9.40296
0.0235,1.99083,1.08922,1.66155,0.490626,4.78822,10.5291,6.29152,8.93026,9.704
0.024,1.99032,1.13404,1.72807,0.511972,4.96097,10.8512,6.48891,9.21047,10.0036
0.0245,1.98978,1.17964,1.79558,0.533782,5.13477,11.1705,6.68514,9.48903,10.301
0.025,1.98925,1.22592,1.86396,0.556023,5.30918,11.4862,6.87964,9.76511,10.5953
0.0255,1.9887,1.27299,1.93335,0.578747,5.48455,11.7987,7.07286,10.0394,10.887
0.026,1.98814,1.32082,2.00367,0.60194,5.66061,12.1076,7.26431,10.3111,11.1757
0.0265,1.98758,1.36933,2.07483,0.625575,5.83703,12.4117,7.45359,10.5798,11.4604
0.027,1.98699,1.41852,2.1468,0.649657,6.01363,12.711,7.64046,10.845,11.741
0.0275,1.98641,1.46848,2.21971,0.674232,6.19079,13.006,7.82532,11.1075,12.018
0.028,1.98581,1.51909,2.29338,0.699248,6.36786,13.2952,8.00738,11.3658,12.2901
0.0285,1.9852,1.57031,2.36774,0.724692,6.54462,13.5782,8.18627,11.6198,12.5568
0.029,1.98459,1.6223,2.44302,0.750645,6.72166,13.8562,8.3628,11.8703,12.8195
0.0295,1.98396,1.67486,2.51893,0.777022,6.89811,14.1273,8.5358,12.1159,13.076
0.03,1.98333,1.72807,2.59553,0.803854,7.07411,14.3917,8.70543,12.3567,13.3269
0.0305,1.98269,1.78192,2.67286,0.831155,7.24964,14.6495,8.87172,12.5927,13.5721
0.031,1.98203,1.83631,2.75072,0.858873,7.42421,14.8995,9.03403,12.8231,13.8107
0.0315,1.98137,1.89127,2.82918,0.887033,7.59789,15.142,9.19245,13.048,14.0427
0.032,1.98068,1.94688,2.90833,0.915677,7.77087,15.3773,9.34728,13.2678,14.2686
0.0325,1.98001,2.00297,2.9879,0.94472,7.9424,15.604,9.49755,13.4811,14.487
0.033,1.97931,2.05968,3.06813,0.97425,8.11307,15.8232,9.64399,13.6889,14.6989
0.0335,1.97861,2.11683,3.1487,1.00417,8.282,16.0332,9.78562,13.89,14.9029
0.034,1.9779,2.1746,3.2299,1.03458,8.44992,16.2355,9.92332,14.0854,15.1003
0.0345,1.97718,2.23278,3.31142,1.06539,8.6159,16.4285,10.056,14.2738,15.2895
0.035,1.97646,2.29149,3.39339,1.09665,8.78037,16.6128,10.1842,14.4558,15.4714
0.0355,1.97572,2.35066,3.47574,1.12833,8.94301,16.788,10.3076,14.6309,15.6452
0.036,1.97497,2.41028,3.55842,1.16045,9.10368,16.9541,10.4262,14.7993,15.8112
0.0365,1.97422,2.47031,3.6414,1.19297,9.26226,17.1106,10.5397,14.9603,15.9687
0.037,1.97345,2.53068,3.72451,1.22587,9.41843,17.2573,10.6479,15.1139,16.1178
0.0375,1.97268,2.59153,3.80795,1.25923,9.57267,17.3948,10.7513,15.2607,16.2589
0.038,1.9719,2.65278,3.89169,1.293,9.72463,17.523,10.8496,15.4003,16.3919
0.0385,1.97111,2.71431,3.97549,1.32714,9.87381,17.641,10.9424,15.532,16.5159
0.039,1.97031,2.77631,4.05962,1.36175,10.0209,17.7501,11.0304,15.657,16.632
0.0395,1.9695,2.83859,4.1438,1.39672,10.1652,17.8491,11.1131,15.7742,16.7394
0.04,1.96868,2.9011,4.22791,1.43205,10.3064,17.9379,11.19,15.8835,16.8379
0.0405,1.96786,2.964,4.31225,1.46781,10.4452,18.0174,11.2621,15.9858,16.9284
0.041,1.96702,3.0271,4.39648,1.50392,10.5808,18.0868,11.3284,16.08,17.0097
0.0415,1.96618,3.09032,4.48053,1.54034,10.713,18.1458,11.389,16.166,17.0819
0.042,1.96533,3.15403,4.5649,1.57726,10.8429,18.1964,11.445,16.2455,17.1467
0.0425,1.96447,3.21795,4.64919,1.61453,10.9698,18.2374,11.4957,16.3174,17.203
0.043,1.9636,3.28195,4.73322,1.65211,11.093,18.2682,11.5407,16.3814,17.2504
0.0435,1.96273,3.34619,4.81718,1.69007,11.2131,18.2897,11.5806,16.438,17.2896
0.044,1.96184,3.4106,4.90101,1.72838,11.33,18.3019,11.6153,16.4872,17.3207
0.0445,1.96095,3.47513,4.9846,1.76702,11.4434,18.3047,11.6446,16.5289,17.3434
0.045,1.96006,3.53975,5.06792,1.80598,11.5532,18.298,11.6685,16.5628,17.3574
0.0455,1.95915,3.60451,5.15105,1.84528,11.6595,18.2824,11.6873,16.5896,17.3635
0.046,1.95823,3.66937,5.23389,1.88491,11.7625,18.258,11.701,16.6091,17.3617
0.0465,1.95731,3.73436,5.31651,1.92488,11.8618,18.2249,11.7097,16.6215,17.3522
0.047,1.95638,3.79949,5.39894,1.96521,11.958,18.1838,11.7139,16.6274,17.3355
0.0475,1.95544,3.86461,5.48093,2.00582,12.0503,18.1338,11.7129,16.626,17.3109
0.048,1.9545,3.92967,5.56239,2.04668,12.1386,18.0751,11.7067,16.6172,17.2783
0.0485,1.95354,3.9947,5.64342,2.08783,12.2232,18.0081,11.6956,16.6015,17.2381
0.049,1.95258,4.05976,5.72406,2.12927,12.3041,17.9334,11.6798,16.5791,17.1907
0.0495,1.95162,4.12487,5.80435,2.17103,12.3814,17.8513,11.6597,16.5505,17.1368
0.05,1.95065,4.19,5.88425,2.2131,12.4553,17.762,11.6353,16.516,17.0766
0.0505,1.94967,4.255,5.96355,2.25541,12.5251,17.6649,11.6062,16.4747,17.009
0.051,1.94867,4.31982,6.04216,2.29791,12.5908,17.5603,11.5723,16.4267,16.9343
0.0515,1.94768,4.38448,6.1201,2.34063,12.6525,17.4488,11.5343,16.3727,16.8533
0.052,1.94668,4.44907,6.19752,2.38362,12.7105,17.3305,11.4921,16.3128,16.7663
0.0525,1.94568,4.51355,6.27439,2.42686,12.7649,17.2059,11.4458,16.2472,16.6732
0.053,1.94466,4.57795,6.35071,2.47035,12.8155,17.0754,11.3958,16.1762,16.5745
0.0535,1.94363,4.6422,6.42639,2.51407,12.8625,16.9389,11.342,16.0999,16.4703
0.054,1.94261,4.70613,6.50116,2.55793,12.9052,16.796,11.284,16.0175,16.36
0.0545,1.94158,4.76981,6.57518,2.60197,12.944,16.6474,11.2221,15.9297,16.244
0.055,1.94053,4.83331,6.64855,2.64623,12.9791,16.4937,11.1568,15.8372,16.1232
0.0555,1.93948,4.89669,6.7213,2.69072,13.0108,16.3353,11.0884,15.7402,15.998
0.056,1.93843,4.95979,6.79324,2.73537,13.0386,16.1719,11.0166,15.6382,15.8677
0.0565,1.93737,5.02255,6.86429,2.78016,13.0625,16.0037,10.9413,15.5313,15.7326
0.057,1.9363,5.08499,6.93448,2.82509,13.0826,15.8309,10.8629,15.4201,15.5932
0.0575,1.93523,5.14708,7.00377,2.87013,13.0989,15.6538,10.7814,15.3045,15.4496
0.058,1.93415,5.20879,7.07212,2.91529,13.1114,15.4728,10.6969,15.1846,15.3017
0.0585,1.93306,5.27019,7.13961,2.96058,13.1203,15.2881,10.6097,15.0609,15.1502
0.059,1.93197,5.33127,7.20628,3.00602,13.1258,15.1002,10.5199,14.9335,14.9952
0.0595,1.93087,5.39203,7.27206,3.05159,13.1278,14.9091,10.4277,14.8027,14.837
0.06,1.92976,5.45237,7.33686,3.09725,13.1261,14.7149,10.333,14.6683,14.6755
0.0605,1.92865,5.51217,7.40052,3.14292,13.1207,14.5176,10.2357,14.5303,14.5106
0.061,1.92753,5.57152,7.46318,3.18865,13.1117,14.3178,10.1362,14.389,14.3427
0.0615,1.92641,5.63068,7.52517,3.2346,13.1,14.1162,10.035,14.2454,14.1729
0.062,1.92529,5.68936,7.58611,3.28059,13.0848,13.9126,9.93189,14.0991,14.0007
0.0625,1.92415,5.74729,7.64565,3.32647,13.0656,13.7063,9.82637,13.9494,13.8255
0.063,1.92301,5.80487,7.7043,3.37246,13.0435,13.4987,9.7193,13.7975,13.6485
0.0635,1.92187,5.862,7.76197,3.41851,13.0183,13.2898,9.61062,13.6433,13.4696
0.064,1.92071,5.9186,7.81857,3.46457,12.9898,13.0795,9.50036,13.4868,13.2889
0.0645,1.91955,5.97465,7.87402,3.51063,12.9582,12.8681,9.3887,13.3284,13.1067
0.065,1.91839,6.03006,7.92825,3.55663,12.9233,12.6557,9.27555,13.1678,12.9228
0.0655,1.91722,6.08486,7.9813,3.6026,12.8853,12.4426,9.16107,13.0054,12.7376
0.066,1.91605,6.13922,8.03335,3.64861,12.8446,12.2292,9.04567,12.8416,12.5515
0.0665,1.91487,6.19309,8.08439,3.69465,12.8013,12.0156,8.92941,12.6767,12.3648
0.067,1.91368,6.24634,8.13429,3.74064,12.755,11.8019,8.81219,12.5104,12.1772
0.0675,1.91249,6.29894,8.18296,3.78655,12.7059,11.5881,8.69408,12.3428,11.989
0.068,1.9113,6.35083,8.23031,3.83235,12.6539,11.3745,8.57514,12.174,11.8002
0.0685,1.91009,6.40193,8.27634,3.87799,12.599,11.1609,8.45541,12.0041,11.6107
0.069,1.90889,6.45258,8.32138,3.92366,12.5419,10.9482,8.33536,11.8338,11.4214
0.0695,1.90769,6.50276,8.36548,3.96936,12.4826,10.7365,8.21507,11.6631,11.2324
0.07,1.90647,6.5522,8.40827,4.01491,12.4207,10.5254,8.09434,11.4917,11.0433
0.0705,1.90525,6.60074,8.44957,4.06023,12.356,10.315,7.9731,11.3197,10.8541
0.071,1.90402,6.64872,8.48985,4.1055,12.2893,10.1059,7.85182,11.1477,10.6655
0.0715,1.90279,6.69599,8.52884,4.15064,12.2203,9.89807,7.73048,10.9755,10.4774
0.072,1.90155,6.74247,8.56652,4.19559,12.149,9.6914,7.60897,10.8031,10.2897
0.0725,1.90031,6.78824,8.60298,4.24041,12.0756,9.48625,7.48753,10.6308,10.1027
0.073,1.89906,6.83339,8.63832,4.28514,12.0003,9.28285,7.36636,10.4589,9.91675
0.0735,1.89782,6.87779,8.67241,4.32969,11.923,9.08109,7.24535,10.2872,9.7316
0.074,1.89656,6.92116,8.70491,4.37389,11.8433,8.88073,7.12429,10.1154,9.54703
0.0745,1.8953,6.9639,8.7363,4.41798,11.762,8.68242,7.00373,9.94431,9.36378
0.075,1.89404,7.00609,8.76669,4.46203,11.6793,8.4864,6.88386,9.77422,9.1821
0.0755,1.89276,7.0473,8.7956,4.50573,11.5946,8.29219,6.76418,9.60443,9.00135
0.076,1.89149,7.08782,8.82337,4.54928,11.5083,8.10021,6.64515,9.43549,8.82209
0.0765,1.89022,7.1275,8.84982,4.59258,11.4204,7.91042,6.52669,9.26738,8.64425
0.077,1.88894,7.16631,8.87493,4.6356,11.3309,7.72282,6.40874,9.10009,8.4678
0.0775,1.88765,7.20457,8.8991,4.67855,11.2404,7.53783,6.29174,8.93404,8.29322
0.078,1.88636,7.24203,8.92196,4.72125,11.1484,7.35528,6.17547,8.76905,8.12031
0.0785,1.88506,7.27848,8.94335,4.76357,11.0549,7.17501,6.05984,8.605,7.94892
0.079,1.88375,7.314,8.96341,4.80556,10.9599,6.99714,5.945,8.44203,7.77919
0.0795,1.88246,7.34885,8.9823,4.84738,10.864,6.82204,5.83113,8.28048,7.61154
0.08,1.88114,7.38255,8.99964,4.88871,10.7666,6.64922,5.71795,8.11988,7.44537
0.0805,1.87983,7.41565,9.01602,4.9299,10.6684,6.47924,5.60591,7.96089,7.28135
0.081,1.87851,7.44813,9.0314,4.97094,10.5695,6.3122,5.49504,7.80361,7.1196
0.0815,1.87719,7.47939,9.04511,5.01144,10.4693,6.14756,5.38501,7.64745,6.95955
0.082,1.87586,7.50996,9.05773,5.05172,10.3683,5.98578,5.2761,7.49293,6.80165
0.0825,1.87454,7.53983,9.0693,5.09178,10.2668,5.82687,5.1684,7.34015,6.64599
0.083,1.8732,7.56871,9.07955,5.13144,10.1643,5.67064,5.06179,7.18887,6.49237
0.0835,1.87186,7.59664,9.08847,5.17071,10.0611,5.51714,4.95628,7.03912,6.34082
0.084,1.87053,7.62368,9.09611,5.20959,9.95713,5.36642,4.85193,6.89106,6.1914
0.0845,1.86918,7.64989,9.10256,5.24816,9.8527,5.2186,4.74886,6.74482,6.04427
0.085,1.86782,7.67523,9.10786,5.28636,9.7477,5.07353,4.64701,6.60029,5.89934
0.0855,1.86647,7.69983,9.11209,5.32429,9.64242,4.93139,4.54652,6.45771,5.75676
0.086,1.86511,7.72355,9.11512,5.36186,9.53676,4.79211,4.44734,6.31698,5.61646
0.0865,1.86375,7.74624,9.1168,5.39893,9.43052,4.6555,4.34934,6.17792,5.47828
0.087,1.86239,7.76805,9.11732,5.4356,9.32396,4.52168,4.25266,6.04074,5.34237
0.0875,1.86102,7.78903,9.11671,5.47192,9.21722,4.39071,4.15737,5.90553,5.2088
0.088,1.85964,7.80918,9.11498,5.50789,9.11033,4.26258,4.06346,5.77229,5.07757
0.0885,1.85826,7.82842,9.1121,5.54342,9.00325,4.13717,3.97089,5.64093,4.94861
0.089,1.85688,7.84667,9.10795,5.57846,8.89592,4.01447,3.87963,5.51144,4.82186
0.0895,1.8555,7.86415,9.10276,5.61315,8.78868,3.89457,3.78983,5.38402,4.6975
0.09,1.85411,7.88106,9.09687,5.64764,8.68171,3.77752,3.70154,5.25875,4.5756
0.0905,1.85272,7.89676,9.08942,5.68148,8.57444,3.66302,3.6145,5.13523,4.4558
0.091,1.85132,7.9115,9.08083,5.71482,8.46715,3.55115,3.5288,5.01364,4.33824
0.0915,1.84992,7.92532,9.0711,5.74769,8.35991,3.44189,3.44448,4.89399,4.22293
0.092,1.84852,7.93826,9.0602,5.78009,8.25279,3.33525,3.36154,4.77631,4.10988
0.0925,1.84711,7.9506,9.04862,5.81224,8.14618,3.23131,3.28014,4.66081,3.99925
0.093,1.8457,7.96186,9.03578,5.8438,8.0396,3.12986,3.20006,4.54717,3.89074
0.0935,1.84428,7.97215,9.02175,5.87482,7.93315,3.0309,3.12131,4.43542,3.7844
0.094,1.84287,7.9819,9.00704,5.9056,7.82732,2.93452,3.04408,4.32584,3.68042
0.0945,1.84145,7.9909,8.99141,5.936,7.72194,2.84065,2.96827,4.21828,3.57868
0.095,1.84003,7.99871,8.97441,5.9657,7.61664,2.74909,2.89374,4.11252,3.47899
0.0955,1.8386,8.00546,8.95623,5.99474,7.51152,2.65986,2.82052,4.00861,3.38136
0.096,1.83716,8.01177,8.93757,6.02361,7.40724,2.57312,2.74881,3.90686,3.28604
0.0965,1.83573,8.0172,8.91787,6.05199,7.30339,2.48867,2.67845,3.80703,3.19281
0.097,1.83429,8.02167,8.89705,6.07978,7.19995,2.40646,2.60941,3.70905,3.10162
0.0975,1.83285,8.02496,8.87488,6.10682,7.09675,2.3264,2.54162,3.61286,3.01239
0.098,1.8314,8.02791,8.85246,6.13375,6.99452,2.24869,2.47532,3.51879,2.92538
0.0985,1.82995,8.03001,8.82899,6.16014,6.89284,2.17312,2.41034,3.42659,2.84038
0.099,1.82851,8.03101,8.80435,6.18584,6.79155,2.0996,2.3466,3.33614,2.75726
0.0995,1.82705,8.03128,8.779,6.21112,6.69096,2.02819,2.28419,3.24758,2.67615
0.1,1.82558,8.03078,8.75276,6.23592,6.59104,1.95882,2.22308,3.16087,2.59698
0.1005,1.82413,8.02961,8.72583,6.26028,6.49197,1.89152,2.16333,3.07607,2.5198
0.101,1.82267,8.02744,8.69782,6.28401,6.39334,1.82607,2.10473,2.99293,2.44438
0.1015,1.82119,8.02434,8.66887,6.30714,6.29535,1.76253,2.04738,2.91155,2.37079
0.102,1.81972,8.02072,8.63942,6.32991,6.19844,1.70101,1.9914,2.83211,2.29918
0.1025,1.81825,8.01618,8.60901,6.35208,6.10209,1.64125,1.93657,2.7543,2.22928
0.103,1.81677,8.01089,8.57786,6.37374,6.00662,1.58332,1.88299,2.67828,2.16119
0.1035,1.81529,8.00489,8.54602,6.39495,5.91195,1.52715,1.83061,2.60395,2.09484
0.104,1.81381,7.9982,8.51346,6.41568,5.81805,1.47267,1.77939,2.53127,2.03016
0.1045,1.81232,7.99076,8.48018,6.43589,5.72498,1.41989,1.72934,2.46025,1.96718
0.105,1.81083,7.98237,8.44598,6.45542,5.63265,1.36871,1.68042,2.39082,1.9058
0.1055,1.80933,7.9731,8.41094,6.47432,5.54109,1.31913,1.6326,2.32297,1.84602
0.106,1.80784,7.9633,8.37543,6.49288,5.45053,1.27114,1.58595,2.25677,1.78788
0.1065,1.80634,7.95292,8.33938,6.51101,5.36093,1.2247,1.54041,2.19215,1.73132
0.107,1.80483,7.94174,8.30258,6.52853,5.27215,1.17973,1.49595,2.12905,1.67627
0.1075,1.80332,7.92959,8.26489,6.5453,5.18419,1.13621,1.45254,2.06745,1.62271
0.108,1.80181,7.91673,8.22658,6.56152,5.09715,1.09412,1.41019,2.00735,1.57063
0.1085,1.8003,7.90352,8.18798,6.57754,5.01114,1.0534,1.36887,1.94872,1.52
0.109,1.79879,7.88951,8.14867,6.59293,4.92598,1.01401,1.32856,1.89152,1.47076
0.1095,1.79726,7.8747,8.10868,6.60766,4.84176,0.975943,1.28925,1.83574,1.42293
0.11,1.79574,7.85943,8.06834,6.62205,4.75863,0.939171,1.25096,1.7814,1.37648
0.1105,1.79422,7.84319,8.02711,6.63568,4.67614,0.903562,1.21354,1.7283,1.33125
0.111,1.79269,7.82629,7.98534,6.64874,4.59467,0.869192,1.17711,1.67661,1.28736
0.1115,1.79116,7.809,7.9433,6.66151,4.51427,0.835997,1.14162,1.62624,1.24476
0.112,1.78962,7.79114,7.90083,6.67379,4.43488,0.803954,1.10707,1.57721,1.20341
0.1125,1.78809,7.77247,7.85771,6.68538,4.3564,0.773016,1.07341,1.52945,1.16326
0.113,1.78655,7.75316,7.81404,6.69647,4.27876,0.743103,1.04058,1.48285,1.12423
0.1135,1.785,7.73318,7.76982,6.70696,4.20203,0.714216,1.0086,1.43746,1.08633
0.114,1.78345,7.71238,7.72502,6.71672,4.12628,0.686374,0.977492,1.39333,1.0496
0.1145,1.7819,7.69149,7.68021,6.7264,4.05168,0.659524,0.947248,1.35041,1.014
0.115,1.78035,7.66987,7.63489,6.73539,3.97808,0.633652,0.91784,1.30867,0.979492
0.1155,1.7788,7.64747,7.58896,6.74371,3.90531,0.608677,0.889192,1.26802,0.945992
0.116,1.77724,7.6246,7.54269,6.75159,3.83349,0.584576,0.861307,1.22845,0.913489
0.1165,1.77567,7.60107,7.496,6.75886,3.76265,0.561361,0.834204,1.18998,0.882008
0.117,1.7741,7.57715,7.44904,6.76577,3.69274,0.538965,0.807824,1.15254,0.851464
0.1175,1.77253,7.55265,7.40173,6.77208,3.62387,0.517411,0.782206,1.11619,0.821902
0.118,1.77097,7.52761,7.35404,6.77789,3.55593,0.496637,0.757288,1.08083,0.79325
0.1185,1.76939,7.50203,7.30601,6.7832,3.4889,0.476609,0.733047,1.04642,0.765472
0.119,1.76781,7.47588,7.25768,6.78789,3.4229,0.457347,0.709522,1.01303,0.738606
0.1195,1.76623,7.44951,7.20927,6.79238,3.35786,0.438785,0.686646,0.980559,0.712567
0.12,1.76466,7.42243,7.16036,6.79617,3.29366,0.420903,0.664405,0.948986,0.687337
0.1205,1.76307,7.39487,7.11121,6.79939,3.23051,0.403718,0.642841,0.918365,0.662954
0.121,1.76148,7.367,7.06199,6.80224,3.16838,0.387193,0.621922,0.888652,0.639377
0.1215,1.75989,7.33831,7.01217,6.80432,3.10697,0.371261,0.601569,0.859729,0.616509
0.122,1.7583,7.30922,6.96213,6.80599,3.04645,0.355916,0.581803,0.831616,0.594355
0.1225,1.7567,7.27978,6.91196,6.80722,2.98691,0.341168,0.56265,0.804346,0.572944
0.123,1.75509,7.24988,6.86161,6.8079,2.92836,0.327007,0.54412,0.777917,0.552265
0.1235,1.75349,7.21968,6.81117,6.80821,2.87076,0.313394,0.526189,0.752278,0.532269
0.124,1.75189,7.18923,6.76066,6.80822,2.81404,0.300292,0.50883,0.727373,0.512916
0.1245,1.75027,7.15789,6.70959,6.80724,2.75814,0.287705,0.492079,0.70321,0.494212
0.125,1.74866,7.12637,6.65855,6.80602,2.70315,0.275603,0.475927,0.679766,0.476122
0.1255,1.74704,7.09453,6.60747,6.80443,2.64909,0.263981,0.460446,0.657042,0.45865
