radius,density_log_10,pp fraction,pep fraction,hep fraction,7Be fraction,8B fraction,13N fraction,15O fraction,17F fraction
0.0005,2.00341,0.000668993,0.00105519,0.000275468,0.00328822,0.00822293,0.00522368,0.00703467,0.00766263
0.001,2.0034,0.00203359,0.00320764,0.000837345,0.00999893,0.024973,0.0158989,0.0213832,0.0233021
0.0015,2.00337,0.00455808,0.00718927,0.00187706,0.0224081,0.0559423,0.0356394,0.0479253,0.0522329
0.002,2.00333,0.00810195,0.0127778,0.00333712,0.0398166,0.0993628,0.0633177,0.0851455,0.0928017
0.0025,2.00328,0.0126575,0.0199604,0.00521487,0.0621763,0.155083,0.0988405,0.132915,0.144866
0.003,2.00322,0.0182232,0.0287335,0.00751034,0.0894664,0.223013,0.142151,0.191155,0.208341
0.0035,2.00315,0.0247992,0.0390961,0.0102244,0.121671,0.303068,0.193193,0.259793,0.283144
0.004,2.00305,0.0323816,0.0510405,0.0133564,0.158751,0.395098,0.251874,0.338703,0.369134
0.0045,2.00295,0.0409734,0.0645699,0.0169087,0.200698,0.499021,0.31814,0.427815,0.466231
0.005,2.00285,0.0505688,0.0796729,0.02088,0.247458,0.614634,0.391864,0.526954,0.574244
0.0055,2.00273,0.0611669,0.0963463,0.0252715,0.298999,0.74178,0.472946,0.635987,0.693025
0.006,2.00259,0.0727666,0.114586,0.0300842,0.355282,0.880282,0.561275,0.754767,0.822407
0.0065,2.00244,0.0853634,0.134381,0.0353179,0.416254,1.02991,0.656707,0.883097,0.962173
0.007,2.00229,0.0989639,0.155741,0.0409771,0.481906,1.19056,0.759176,1.02089,1.11222
0.0075,2.00212,0.113552,0.178635,0.0470569,0.552121,1.36182,0.868421,1.1678,1.27217
0.008,2.00194,0.129129,0.203065,0.0535603,0.626867,1.54351,0.984332,1.32367,1.44185
0.0085,2.00175,0.145699,0.229031,0.0604912,0.706114,1.73543,1.10679,1.48834,1.62107
0.009,2.00154,0.163252,0.256516,0.0678475,0.789766,1.93724,1.23557,1.66151,1.80951
0.0095,2.00133,0.181793,0.285521,0.0756337,0.877794,2.14873,1.37055,1.84302,2.00698
0.01,2.00111,0.201296,0.316004,0.083842,0.970031,2.36934,1.51137,2.03239,2.21295
0.0105,2.00087,0.221784,0.347997,0.0924849,1.06652,2.59908,1.65804,2.22962,2.42742
0.011,2.00062,0.24324,0.381465,0.101557,1.16713,2.83742,1.81024,2.43429,2.64992
0.0115,2.00036,0.265662,0.416407,0.111062,1.27178,3.0841,1.96781,2.64618,2.88018
0.012,2.00009,0.289044,0.452799,0.120999,1.38038,3.3387,2.13048,2.86492,3.11783
0.0125,1.99982,0.313383,0.490642,0.131371,1.49288,3.60091,2.29804,3.09026,3.36257
0.013,1.99952,0.338657,0.529888,0.142172,1.60907,3.87014,2.47015,3.3217,3.61384
0.0135,1.99921,0.364899,0.570586,0.153418,1.72906,4.14645,2.64685,3.55931,3.8717
0.014,1.9989,0.392085,0.612693,0.165104,1.85265,4.42921,2.82775,3.80257,4.13559
0.0145,1.99857,0.42019,0.656169,0.177224,1.97966,4.71785,3.01247,4.05098,4.40495
0.015,1.99824,0.449224,0.701016,0.189783,2.11008,5.01209,3.20087,4.30431,4.67954
0.0155,1.99788,0.479188,0.74723,0.202788,2.2438,5.31162,3.39274,4.56234,4.95906
0.016,1.99752,0.510045,0.794754,0.216226,2.38061,5.61567,3.58762,4.82438,5.2428
0.0165,1.99715,0.541843,0.84365,0.230121,2.52062,5.92441,3.78562,5.09065,5.53093
0.017,1.99677,0.574528,0.893833,0.244456,2.66352,6.23691,3.98616,5.36032,5.82257
0.0175,1.99637,0.608107,0.945304,0.259237,2.80926,6.55289,4.18905,5.63317,6.11748
0.018,1.99598,0.642585,0.998062,0.27447,2.95778,6.87201,4.39414,5.90894,6.41536
0.0185,1.99555,0.67793,1.05205,0.290147,3.10884,7.1936,4.60095,6.18705,6.71558
0.019,1.99513,0.714163,1.1073,0.306281,3.26244,7.5175,4.80945,6.46743,7.01797
0.0195,1.9947,0.75126,1.16377,0.322865,3.41843,7.84312,5.01924,6.74952,7.32203
0.02,1.99425,0.789208,1.22142,0.3399,3.57664,8.16999,5.23003,7.03301,7.62729
0.0205,1.99379,0.828018,1.28026,0.357395,3.737,8.4978,5.44171,7.31765,7.93354
0.021,1.99332,0.867658,1.34025,0.37534,3.89934,8.82592,5.65378,7.60286,8.24012
0.0215,1.99284,0.908104,1.40133,0.39373,4.06343,9.15375,5.86594,7.88815,8.54649
0.022,1.99235,0.949408,1.46358,0.412594,4.2294,9.48148,6.07835,8.17376,8.85289
0.0225,1.99185,0.991485,1.52687,0.431896,4.39682,9.80791,6.29022,8.45867,9.15819
0.023,1.99134,1.03443,1.59131,0.451685,4.56595,10.1336,6.50194,8.74334,9.46293
0.0235,1.99082,1.07812,1.65674,0.471916,4.73629,10.4572,6.71263,9.02669,9.76583
0.024,1.9903,1.12258,1.72315,0.492597,4.90775,10.7784,6.92212,9.3084,10.0666
0.0245,1.98975,1.16782,1.79059,0.513744,5.0803,11.0971,7.13043,9.58852,10.3653
0.025,1.9892,1.21383,1.85901,0.535356,5.2539,11.413,7.3373,9.86675,10.6615
0.0255,1.98863,1.26061,1.9284,0.557435,5.42833,11.7256,7.54246,10.1426,10.9548
0.026,1.98805,1.30805,1.99861,0.579944,5.60313,12.0338,7.74524,10.4152,11.2441
0.0265,1.98748,1.35632,2.06985,0.602954,5.77888,12.3387,7.94635,10.6857,11.5306
0.027,1.98689,1.40522,2.14186,0.626394,5.95471,12.6384,8.14457,10.9523,11.8126
0.0275,1.98628,1.4549,2.21482,0.650326,6.13112,12.9338,8.34056,11.2158,12.0907
0.028,1.98567,1.50516,2.28844,0.674671,6.30717,13.2231,8.53302,11.4746,12.3633
0.0285,1.98505,1.55619,2.36297,0.699514,6.48364,13.5075,8.72293,11.73,12.6318
0.029,1.98442,1.60783,2.43819,0.724793,6.65969,13.7856,8.90926,11.9806,12.8945
0.0295,1.98377,1.66014,2.51418,0.750541,6.83562,14.0576,9.0923,12.2267,13.152
0.03,1.98313,1.7132,2.59104,0.776794,7.01156,14.324,9.27222,12.4687,13.4044
0.0305,1.98246,1.76674,2.66836,0.80344,7.18639,14.5824,9.44753,12.7045,13.6497
0.031,1.98179,1.82092,2.74638,0.830556,7.36067,14.8339,9.6191,12.9352,13.8889
0.0315,1.98112,1.87574,2.82509,0.858148,7.53438,15.0784,9.78669,13.1605,14.122
0.032,1.98042,1.93113,2.90436,0.886184,7.70705,15.3151,9.94993,13.3801,14.3482
0.0325,1.97973,1.9871,2.98423,0.91468,7.87878,15.5441,10.1089,13.5937,14.5675
0.033,1.97901,2.04354,3.06449,0.943586,8.04901,15.7643,10.2626,13.8005,14.779
0.0335,1.9783,2.10062,3.14544,0.972991,8.21835,15.977,10.4123,14.0018,14.9839
0.034,1.97757,2.15813,3.2267,1.0028,8.3859,16.1805,10.5566,14.1958,15.1806
0.0345,1.97684,2.21625,3.30856,1.03309,8.55237,16.3761,10.6966,14.3841,15.3704
0.035,1.9761,2.2748,3.39074,1.0638,8.71686,16.5623,10.831,14.5649,15.5518
0.0355,1.97533,2.33386,3.47337,1.09497,8.87979,16.7399,10.9606,14.7391,15.7254
0.036,1.97458,2.39337,3.55633,1.12657,9.04079,16.9081,11.0848,14.9062,15.891
0.0365,1.97381,2.45327,3.63953,1.15857,9.1996,17.0667,11.2034,15.0657,16.0479
0.037,1.97302,2.51374,3.72323,1.19107,9.35687,17.2169,11.3174,15.219,16.1975
0.0375,1.97224,2.57449,3.80699,1.22394,9.51146,17.3568,11.4252,15.364,16.3377
0.038,1.97144,2.6356,3.89094,1.25722,9.6636,17.4868,11.5274,15.5014,16.4693
0.0385,1.97062,2.69712,3.97514,1.29094,9.81351,17.6074,11.6241,15.6315,16.5927
0.039,1.96981,2.75912,4.0597,1.32512,9.96136,17.7192,11.7157,15.7547,16.7081
0.0395,1.96899,2.82147,4.14439,1.35973,10.1066,17.8213,11.8018,15.8704,16.815
0.04,1.96816,2.884,4.22897,1.39466,10.2487,17.9128,11.8816,15.9777,16.9125
0.0405,1.96732,2.94694,4.31377,1.43006,10.3885,17.9951,11.9561,16.078,17.0019
0.041,1.96646,3.01008,4.39851,1.46581,10.525,18.0672,12.0246,16.1701,17.0823
0.0415,1.9656,3.07359,4.48338,1.50199,10.6589,18.1301,12.0876,16.2547,17.1542
0.042,1.96474,3.13734,4.56822,1.53857,10.7897,18.1832,12.1449,16.3318,17.2175
0.0425,1.96387,3.20125,4.65288,1.5755,10.9173,18.2262,12.1962,16.4008,17.2719
0.043,1.96299,3.26553,4.73768,1.61287,11.0422,18.2606,12.2424,16.4629,17.3186
0.0435,1.9621,3.32987,4.82222,1.65056,11.1634,18.2847,12.2825,16.517,17.3562
0.044,1.9612,3.39447,4.90668,1.68864,11.2816,18.2997,12.3171,16.5635,17.3856
0.0445,1.9603,3.45924,4.99098,1.7271,11.3964,18.3055,12.3462,16.6026,17.4067
0.045,1.95938,3.52411,5.07499,1.76589,11.5077,18.3017,12.3695,16.6341,17.4193
0.0455,1.95845,3.58904,5.15866,1.805,11.6154,18.2885,12.3873,16.6579,17.4236
0.046,1.95752,3.65408,5.24205,1.84445,11.7195,18.2664,12.3996,16.6745,17.4198
0.0465,1.95658,3.7193,5.32529,1.88428,11.8204,18.2359,12.4067,16.6841,17.4084
0.047,1.95562,3.78452,5.4081,1.92441,11.9174,18.1963,12.4082,16.6862,17.3888
0.0475,1.95466,3.84972,5.49047,1.96483,12.0106,18.1479,12.4044,16.681,17.3613
0.048,1.9537,3.91508,5.57263,2.00563,12.1005,18.0916,12.3957,16.6694,17.3268
0.0485,1.95273,3.98044,5.65437,2.04674,12.1867,18.0271,12.3818,16.6507,17.2847
0.049,1.95175,4.04577,5.73561,2.08813,12.269,17.9545,12.3628,16.6252,17.2351
0.0495,1.95077,4.1111,5.81642,2.12982,12.3477,17.874,12.339,16.5932,17.1786
0.05,1.94977,4.17631,5.89665,2.17176,12.4224,17.7857,12.3103,16.5547,17.1151
0.0505,1.94877,4.24146,5.97633,2.21399,12.4932,17.69,12.2768,16.5097,17.0448
0.051,1.94776,4.30664,6.05561,2.25654,12.5605,17.5874,12.2389,16.4586,16.968
0.0515,1.94675,4.37172,6.13431,2.29935,12.6239,17.4777,12.1963,16.4014,16.8846
0.052,1.94572,4.43661,6.21232,2.34239,12.6834,17.361,12.1492,16.3381,16.7948
0.0525,1.94469,4.5014,6.28977,2.38568,12.7391,17.2379,12.098,16.2693,16.6993
0.053,1.94366,4.56601,6.3665,2.42919,12.7909,17.1083,12.0424,16.1946,16.5977
0.0535,1.94261,4.63038,6.44245,2.4729,12.8386,16.9723,11.9824,16.1139,16.4899
0.054,1.94157,4.6946,6.51775,2.51686,12.8825,16.8306,11.9185,16.0281,16.3766
0.0545,1.94051,4.75876,6.59254,2.5611,12.9231,16.6837,11.8513,15.9376,16.2587
0.055,1.93945,4.82271,6.6666,2.60555,12.96,16.5314,11.7803,15.8422,16.1358
0.0555,1.93837,4.88622,6.7396,2.6501,12.9924,16.3732,11.705,15.7411,16.007
0.056,1.9373,4.94945,6.81178,2.69482,13.021,16.21,11.6262,15.6352,15.8735
0.0565,1.93623,5.01255,6.88335,2.73979,13.0462,16.0426,11.5445,15.5253,15.7361
0.057,1.93514,5.07549,6.95425,2.785,13.0679,15.8711,11.4597,15.4113,15.5945
0.0575,1.93404,5.13801,7.02414,2.83031,13.0857,15.6949,11.3715,15.2928,15.4484
0.058,1.93293,5.19992,7.09279,2.87561,13.0992,15.514,11.2798,15.1694,15.2977
0.0585,1.93182,5.26172,7.16084,2.92119,13.1094,15.3301,11.1856,15.0428,15.1438
0.059,1.93071,5.32331,7.22816,2.96697,13.1164,15.143,11.089,14.9129,14.9868
0.0595,1.92959,5.38434,7.29429,3.01277,13.1194,14.9521,10.9893,14.779,14.826
0.06,1.92846,5.44487,7.35931,3.05863,13.1185,14.7578,10.8868,14.6412,14.6615
0.0605,1.92733,5.50513,7.42354,3.10466,13.1145,14.5611,10.7822,14.5005,14.4943
0.061,1.9262,5.56512,7.487,3.15087,13.1075,14.3622,10.6757,14.3573,14.3251
0.0615,1.92505,5.62452,7.54926,3.19708,13.0965,14.1606,10.5667,14.2108,14.1528
0.062,1.9239,5.68333,7.61031,3.24329,13.0819,13.9564,10.4553,14.0612,13.9776
0.0625,1.92275,5.74189,7.67059,3.28968,13.0644,13.7507,10.3424,13.9094,13.8007
0.063,1.92159,5.7999,7.72971,3.33608,13.0434,13.5432,10.2277,13.7551,13.6217
0.0635,1.92042,5.85734,7.78765,3.38248,13.0191,13.3341,10.1111,13.5984,13.4406
0.064,1.91925,5.91431,7.8446,3.42895,12.9917,13.1238,9.99305,13.4398,13.258
0.0645,1.91806,5.97049,7.90011,3.47529,12.9606,12.9117,9.87308,13.2785,13.0733
0.065,1.91688,6.02624,7.95462,3.52169,12.9266,12.6991,9.75203,13.1157,12.8875
0.0655,1.91569,6.08165,8.00828,3.56823,12.8901,12.4862,9.6301,12.9518,12.7011
0.066,1.9145,6.13639,8.0607,3.6147,12.8504,12.2726,9.50682,12.7861,12.5133
0.0665,1.9133,6.19047,8.11186,3.66111,12.8076,12.0585,9.38243,12.6189,12.3245
0.067,1.91209,6.24409,8.16203,3.70757,12.7623,11.8445,9.25737,12.4508,12.1354
0.0675,1.91089,6.29699,8.21089,3.75393,12.7139,11.6302,9.13127,12.2813,11.9454
0.068,1.90967,6.34931,8.25861,3.80025,12.6629,11.4163,9.00453,12.1109,11.7551
0.0685,1.90845,6.40096,8.3051,3.8465,12.6092,11.2026,8.87717,11.9396,11.5645
0.069,1.90722,6.4518,8.35018,3.89258,12.5525,10.9892,8.74914,11.7676,11.3737
0.0695,1.90599,6.5024,8.3946,3.93884,12.4942,10.7772,8.62128,11.5957,11.1835
0.07,1.90475,6.55213,8.43753,3.98488,12.433,10.5656,8.49278,11.4229,10.9932
0.0705,1.90351,6.60095,8.4789,4.03068,12.3689,10.3545,8.36374,11.2494,10.8027
0.071,1.90227,6.64915,8.51914,4.07642,12.3027,10.1448,8.2347,11.076,10.6128
0.0715,1.90101,6.69668,8.55823,4.12205,12.2342,9.93622,8.10562,10.9025,10.4235
0.072,1.89975,6.74348,8.59602,4.16756,12.1636,9.72903,7.9766,10.729,10.2348
0.0725,1.8985,6.78965,8.63268,4.21298,12.0909,9.52342,7.84778,10.5558,10.0471
0.073,1.89723,6.83515,8.6682,4.25828,12.0163,9.31943,7.71919,10.383,9.86019
0.0735,1.89595,6.87975,8.70225,4.30332,11.9395,9.11698,7.59073,10.2103,9.67416
0.074,1.89468,6.92357,8.73496,4.34817,11.8606,8.91626,7.4626,10.0381,9.48919
0.0745,1.8934,6.9668,8.76662,4.39296,11.7802,8.7176,7.33502,9.86654,9.30555
0.075,1.89211,7.00918,8.79696,4.43752,11.6979,8.52084,7.20787,9.69563,9.12309
0.0755,1.89081,7.05053,8.8257,4.4817,11.6134,8.32587,7.08105,9.52514,8.94169
0.076,1.88953,7.0912,8.85328,4.52575,11.5275,8.13317,6.95491,9.35559,8.76186
0.0765,1.88822,7.13126,8.87988,4.56971,11.4402,7.94288,6.82965,9.18716,8.58372
0.077,1.88692,7.17052,8.90514,4.61343,11.3514,7.75488,6.70509,9.01972,8.40716
0.0775,1.88562,7.20886,8.92898,4.65685,11.261,7.56914,6.58122,8.85323,8.23213
0.078,1.8843,7.24629,8.95144,4.69995,11.1691,7.38571,6.45811,8.68775,8.05871
0.0785,1.88298,7.28287,8.97267,4.74278,11.0758,7.20474,6.33592,8.52346,7.88708
0.079,1.88166,7.31896,8.99298,4.78558,10.9817,7.02661,6.21493,8.36085,7.71764
0.0795,1.88034,7.35401,9.01177,4.82797,10.8862,6.85087,6.09476,8.1993,7.54987
0.08,1.87901,7.38813,9.02921,4.87001,10.7893,6.67764,5.97553,8.03899,7.38391
0.0805,1.87767,7.42155,9.04553,4.91186,10.6916,6.50719,5.85748,7.88029,7.22008
0.081,1.87634,7.45389,9.0603,4.95327,10.5926,6.33928,5.74037,7.72287,7.05811
0.0815,1.875,7.48562,9.07418,4.99453,10.493,6.17431,5.62463,7.56728,6.89846
0.082,1.87364,7.51657,9.08688,5.03553,10.3926,6.0121,5.51008,7.41329,6.74095
0.0825,1.87229,7.54621,9.09774,5.0759,10.2908,5.8523,5.3964,7.26046,6.58516
0.083,1.87095,7.57516,9.10761,5.11606,10.1885,5.69547,5.28411,7.10951,6.43174
0.0835,1.86958,7.60334,9.11635,5.15596,10.0855,5.54149,5.17311,6.96029,6.28059
0.084,1.86821,7.63075,9.12406,5.19558,9.98214,5.39043,5.06347,6.81294,6.13176
0.0845,1.86685,7.65715,9.13032,5.23474,9.87796,5.24209,4.95507,6.66722,5.98505
0.085,1.86548,7.68258,9.13522,5.27347,9.77309,5.09648,4.84794,6.52318,5.84051
0.0855,1.8641,7.7072,9.13905,5.31189,9.66784,4.95374,4.7422,6.38102,5.69831
0.086,1.86272,7.73109,9.14182,5.35003,9.5624,4.81396,4.63796,6.2409,5.55855
0.0865,1.86134,7.75398,9.14329,5.38773,9.45647,4.67696,4.53508,6.10258,5.42103
0.087,1.85995,7.77587,9.14341,5.42494,9.35002,4.54265,4.43352,5.96603,5.2857
0.0875,1.85857,7.79702,9.14247,5.46185,9.24347,4.41123,4.33345,5.83153,5.15278
0.088,1.85717,7.81735,9.14053,5.49842,9.13682,4.28269,4.2349,5.69907,5.02224
0.0885,1.85576,7.83661,9.13725,5.53444,9.02977,4.15679,4.13772,5.5684,4.89387
0.089,1.85436,7.85501,9.13279,5.57007,8.92264,4.03369,4.04203,5.43975,4.76786
0.0895,1.85296,7.87255,9.12719,5.60528,8.81545,3.91335,3.94782,5.31311,4.64418
0.09,1.85155,7.88915,9.12041,5.64002,8.70818,3.79569,3.85507,5.1884,4.52277
0.0905,1.85013,7.90493,9.1126,5.6744,8.601,3.6808,3.76387,5.06578,4.40372
0.091,1.84872,7.91996,9.10384,5.70841,8.49404,3.56865,3.67421,4.94527,4.28708
0.0915,1.8473,7.93393,9.0938,5.74185,8.38699,3.45904,3.58595,4.82663,4.17258
0.092,1.84587,7.94701,9.08263,5.77483,8.28006,3.35206,3.49917,4.70996,4.06035
0.0925,1.84445,7.95942,9.07062,5.80751,8.17353,3.24778,3.41398,4.59544,3.95052
0.093,1.84302,7.97088,9.0575,5.83967,8.06713,3.146,3.33023,4.48285,3.84289
0.0935,1.84158,7.98129,9.04313,5.87125,7.96083,3.0467,3.2479,4.37216,3.7374
0.094,1.84014,7.99077,9.02764,5.90232,7.8548,2.94989,3.16703,4.26344,3.63412
0.0945,1.83871,7.99951,9.01125,5.93298,7.74919,2.85558,3.08767,4.15675,3.53308
0.095,1.83726,8.00748,8.99403,5.96324,7.64405,2.76375,3.00982,4.05209,3.43427
0.0955,1.83581,8.01461,8.97575,5.99303,7.5393,2.67432,2.93343,3.94939,3.33764
0.096,1.83435,8.02085,8.95643,6.02232,7.43497,2.58724,2.85847,3.84862,3.24312
0.0965,1.8329,8.02603,8.93601,6.05096,7.33095,2.5024,2.78491,3.74972,3.15062
0.097,1.83144,8.0303,8.91453,6.07904,7.22733,2.41984,2.71275,3.65271,3.06023
0.0975,1.82998,8.03411,8.8925,6.10692,7.12456,2.33963,2.64214,3.55778,2.97202
0.098,1.82851,8.03681,8.86925,6.1341,7.02214,2.26157,2.57287,3.46466,2.88578
0.0985,1.82704,8.03888,8.8453,6.16091,6.92046,2.18571,2.50506,3.37349,2.80162
0.099,1.82556,8.03987,8.82018,6.18702,6.81917,2.11192,2.43857,3.28409,2.71935
0.0995,1.82409,8.04005,8.79421,6.21266,6.71851,2.04022,2.37344,3.19654,2.63904
0.1,1.82261,8.03977,8.76774,6.23806,6.61878,1.97063,2.30978,3.11095,2.56076
0.1005,1.82113,8.03836,8.74012,6.26267,6.51957,1.90305,2.24745,3.02715,2.48438
0.101,1.81964,8.03606,8.71154,6.28668,6.42099,1.83743,2.18645,2.94514,2.40987
0.1015,1.81816,8.03326,8.68243,6.31042,6.32328,1.77374,2.12679,2.86493,2.33722
0.102,1.81666,8.02959,8.65243,6.3336,6.22617,1.71187,2.06836,2.78638,2.2663
0.1025,1.81516,8.02491,8.62139,6.35609,6.12966,1.65181,2.01119,2.70951,2.19714
0.103,1.81366,8.01964,8.58981,6.37817,6.0342,1.59367,1.95541,2.63452,2.12987
0.1035,1.81216,8.01372,8.5576,6.3998,5.93966,1.53735,1.90094,2.56129,2.06439
0.104,1.81066,8.00668,8.52422,6.42063,5.84553,1.4826,1.84756,2.48951,2.00043
0.1045,1.80914,7.99898,8.49022,6.44106,5.75225,1.42954,1.7954,2.41938,1.93814
0.105,1.80764,7.99049,8.45548,6.46088,5.65987,1.37817,1.74448,2.35093,1.87755
0.1055,1.80612,7.98131,8.42009,6.48022,5.56838,1.32841,1.69476,2.28408,1.81857
0.106,1.8046,7.97151,8.38415,6.49912,5.47786,1.28025,1.64625,2.21885,1.76122
0.1065,1.80308,7.96099,8.34754,6.51745,5.38825,1.23365,1.5989,2.1552,1.70543
0.107,1.80155,7.94972,8.31019,6.53527,5.29936,1.18846,1.55261,2.09295,1.65107
0.1075,1.80003,7.93761,8.27214,6.55246,5.21137,1.14474,1.50745,2.03224,1.59823
0.108,1.79851,7.92477,8.2334,6.56911,5.12422,1.10242,1.46337,1.97298,1.54682
0.1085,1.79697,7.91123,8.19406,6.58516,5.03805,1.06151,1.4204,1.91519,1.49686
0.109,1.79543,7.89705,8.1542,6.60069,4.95291,1.022,1.37855,1.85892,1.44837
0.1095,1.79389,7.88233,8.11384,6.61589,4.86857,0.983701,1.33765,1.80393,1.40114
0.11,1.79235,7.86679,8.07281,6.63035,4.78523,0.946744,1.29785,1.75042,1.35532
0.1105,1.7908,7.85045,8.03111,6.64419,4.70276,0.911003,1.25903,1.69822,1.31078
0.111,1.78925,7.8335,7.98888,6.65756,4.62117,0.876426,1.22116,1.6473,1.26746
0.1115,1.7877,7.81603,7.94627,6.67048,4.5406,0.843051,1.1843,1.59775,1.22544
0.112,1.78614,7.79798,7.90321,6.6829,4.46106,0.810835,1.14842,1.54951,1.18467
0.1125,1.78458,7.77911,7.8595,6.69457,4.38246,0.779739,1.11349,1.50254,1.14511
0.113,1.78303,7.75955,7.81521,6.70574,4.30465,0.749658,1.07941,1.45672,1.10663
0.1135,1.78145,7.73984,7.77095,6.71672,4.22812,0.720701,1.04633,1.41224,1.06941
0.114,1.77989,7.71923,7.72594,6.72692,4.15237,0.692708,1.01407,1.36886,1.03322
0.1145,1.77833,7.69786,7.68034,6.73645,4.07751,0.665693,0.982657,1.32662,0.998117
0.115,1.77675,7.67601,7.63441,6.74556,4.00361,0.639627,0.952089,1.28552,0.96407
0.1155,1.77517,7.6536,7.58805,6.75415,3.93063,0.61446,0.922319,1.24549,0.931018
0.116,1.77359,7.63066,7.54142,6.76221,3.85877,0.590242,0.893416,1.20663,0.899043
0.1165,1.77202,7.6073,7.49454,6.76989,3.78789,0.566899,0.865314,1.16884,0.868059
0.117,1.77043,7.58322,7.44713,6.77689,3.71791,0.544383,0.837964,1.13207,0.83801
0.1175,1.76884,7.55851,7.39929,6.78327,3.64886,0.52268,0.811367,1.0963,0.808887
0.118,1.76725,7.53338,7.35123,6.78923,3.58081,0.501778,0.785525,1.06155,0.780685
0.1185,1.76566,7.50776,7.30286,6.79468,3.51371,0.48164,0.760406,1.02778,0.753369
0.119,1.76406,7.48147,7.25405,6.79947,3.4475,0.462233,0.73598,0.994939,0.7269
0.1195,1.76246,7.45455,7.20485,6.80367,3.38217,0.443536,0.712235,0.963008,0.701255
0.12,1.76086,7.4274,7.15558,6.80757,3.31784,0.425538,0.689176,0.932004,0.676438
0.1205,1.75926,7.3997,7.10602,6.81091,3.25449,0.408216,0.666787,0.901891,0.65242
0.121,1.75764,7.37155,7.05621,6.81377,3.19205,0.391538,0.645039,0.87264,0.629167
0.1215,1.75602,7.34299,7.00622,6.81617,3.13054,0.375489,0.623923,0.844238,0.606668
0.122,1.75441,7.31396,6.95599,6.81802,3.06999,0.360056,0.603435,0.816677,0.584911
0.1225,1.7528,7.28437,6.90548,6.81925,3.01035,0.345216,0.583558,0.789934,0.563873
0.123,1.75118,7.2544,6.85479,6.82007,2.95159,0.33093,0.564258,0.763955,0.543507
0.1235,1.74955,7.22399,6.8039,6.82038,2.89373,0.31719,0.545536,0.738739,0.523807
0.124,1.74792,7.19306,6.75279,6.8201,2.83677,0.303987,0.527397,0.714288,0.50477
0.1245,1.7463,7.1618,6.70155,6.8194,2.7807,0.291287,0.509815,0.690552,0.486356
0.125,1.74467,7.13027,6.65029,6.8183,2.72558,0.279091,0.492813,0.667549,0.468572
0.1255,1.74304,7.09839,6.59896,6.81678,2.67138,0.267376,0.476378,0.645252,0.451394
