radius,density_log_10,pp fraction,pep fraction,hep fraction,7Be fraction,8B fraction,13N fraction,15O fraction,17F fraction
0.0005,2.0035,0.000680113,0.00106575,0.000288061,0.00334652,0.00834429,0.00495855,0.00699358,0.00765726
0.001,2.00349,0.00206012,0.00322822,0.000872562,0.0101407,0.0252503,0.01502,0.0211834,0.0232141
0.0015,2.00347,0.0046151,0.00723156,0.00195496,0.0227139,0.0565327,0.0336468,0.0474532,0.0520122
0.002,2.00343,0.00820327,0.0128529,0.00347554,0.0403598,0.100411,0.0597792,0.0843086,0.0924106
0.0025,2.00338,0.0128158,0.0200778,0.00543109,0.0630247,0.156719,0.0933191,0.131611,0.144259
0.003,2.00332,0.018451,0.0289024,0.00782144,0.0906861,0.225362,0.134212,0.189285,0.207468
0.0035,2.00325,0.0251078,0.039324,0.0106471,0.123322,0.30624,0.1824,0.257247,0.281949
0.004,2.00316,0.0327856,0.0513399,0.0139084,0.160909,0.399241,0.237818,0.335404,0.367592
0.0045,2.00306,0.0414827,0.064946,0.017606,0.203415,0.504225,0.300386,0.423645,0.464274
0.005,2.00296,0.0511959,0.0801352,0.0217396,0.250799,0.621019,0.370002,0.521825,0.571832
0.0055,2.00284,0.061924,0.0969034,0.0263099,0.303026,0.749456,0.446572,0.629814,0.690114
0.006,2.00272,0.0736645,0.115245,0.0313175,0.360049,0.889344,0.529984,0.747455,0.818945
0.0065,2.00257,0.0864155,0.135153,0.0367631,0.421828,1.04048,0.620121,0.874576,0.95814
0.007,2.00242,0.100177,0.156627,0.0426486,0.488324,1.20268,0.71688,1.01104,1.10753
0.0075,2.00226,0.114942,0.179649,0.0489721,0.559457,1.37563,0.820077,1.15659,1.26682
0.008,2.00207,0.130707,0.204216,0.0557353,0.635174,1.5591,0.929586,1.31103,1.43582
0.0085,2.00189,0.147472,0.23032,0.0629396,0.715425,1.75284,1.04526,1.47416,1.61428
0.009,2.00168,0.165224,0.257938,0.0705817,0.800097,1.95645,1.16686,1.64567,1.80185
0.0095,2.00149,0.183979,0.287091,0.0786708,0.889213,2.16987,1.29437,1.8255,1.99847
0.01,2.00125,0.20371,0.317737,0.0871985,0.982601,2.39251,1.42745,2.01319,2.2036
0.0105,2.00103,0.224436,0.349896,0.0961744,1.08028,2.62432,1.56607,2.20868,2.41719
0.011,2.00078,0.246132,0.383526,0.105592,1.18209,2.86472,1.70989,2.41152,2.63874
0.0115,2.00053,0.268805,0.418636,0.115455,1.28798,3.11349,1.85879,2.62152,2.86801
0.012,2.00026,0.292443,0.455199,0.125764,1.39785,3.37019,2.01251,2.83831,3.10462
0.0125,1.99998,0.317051,0.493219,0.136522,1.51164,3.63455,2.17092,3.06173,3.34834
0.013,1.99969,0.342608,0.53266,0.147723,1.6292,3.90602,2.33369,3.29129,3.59863
0.0135,1.9994,0.369119,0.573521,0.159375,1.75047,4.18433,2.50066,3.52677,3.85528
0.014,1.99909,0.396591,0.615812,0.171482,1.87543,4.46923,2.67171,3.76801,4.11806
0.0145,1.99878,0.424993,0.659476,0.184035,2.00383,4.76001,2.84642,4.01441,4.38631
0.015,1.99844,0.454325,0.704509,0.197038,2.13562,5.05633,3.02461,4.26572,4.65973
0.0155,1.9981,0.48458,0.750891,0.21049,2.27068,5.35776,3.20601,4.52155,4.93794
0.016,1.99774,0.515775,0.798644,0.224404,2.40901,5.66414,3.39056,4.78183,5.2208
0.0165,1.99739,0.54788,0.84772,0.238771,2.55041,5.97479,3.57788,5.046,5.50767
0.017,1.99701,0.580882,0.898087,0.253588,2.69471,6.28921,3.76764,5.31364,5.79811
0.0175,1.99662,0.614791,0.949754,0.268864,2.84189,6.60711,3.95973,5.58453,6.09189
0.018,1.99622,0.649578,1.00267,0.284591,2.99173,6.92787,4.15376,5.85821,6.3884
0.0185,1.99582,0.68527,1.05687,0.300783,3.14426,7.25137,4.3497,6.13453,6.68757
0.019,1.9954,0.721817,1.11228,0.317425,3.29919,7.57677,4.54705,6.41288,6.98861
0.0195,1.99497,0.759223,1.16888,0.334521,3.45643,7.90372,4.7456,6.69289,7.29125
0.02,1.99454,0.797516,1.22673,0.35209,3.61603,8.23216,4.94535,6.97463,7.59541
0.0205,1.99408,0.836658,1.28574,0.370118,3.77772,8.56135,5.1459,7.25745,7.90042
0.021,1.99363,0.876624,1.34588,0.388599,3.9413,8.89065,5.34684,7.54084,8.20571
0.0215,1.99316,0.917418,1.40714,0.40754,4.1067,9.21979,5.54802,7.82458,8.51108
0.022,1.99268,0.95904,1.46952,0.426943,4.27386,9.54844,5.74929,8.10844,8.81615
0.0225,1.99219,1.00143,1.53293,0.446792,4.44243,9.87569,5.95013,8.39165,9.1202
0.023,1.99169,1.04468,1.59746,0.467125,4.61263,10.202,6.15077,8.6746,9.42359
0.0235,1.99118,1.08872,1.66306,0.487922,4.7842,10.5265,6.35073,8.95668,9.72555
0.024,1.99066,1.13352,1.72962,0.509172,4.95682,10.8485,6.54966,9.23725,10.0254
0.0245,1.99012,1.17908,1.79717,0.530877,5.13044,11.1676,6.74737,9.51606,10.323
0.025,1.98958,1.22541,1.8657,0.55305,5.30501,11.4838,6.94375,9.79297,10.6181
0.0255,1.98903,1.27244,1.93509,0.575663,5.48012,11.796,7.1382,10.0672,10.9099
0.026,1.98848,1.32029,2.00552,0.598778,5.65628,12.1052,7.33132,10.3397,11.1991
0.0265,1.9879,1.36883,2.07681,0.622341,5.83276,12.4098,7.52222,10.6089,11.4845
0.027,1.98732,1.418,2.14884,0.646325,6.00926,12.709,7.71044,10.8743,11.7652
0.0275,1.98673,1.46798,2.22186,0.670819,6.18644,13.0042,7.89677,11.1371,12.0425
0.028,1.98613,1.51858,2.29559,0.695741,6.36341,13.2934,8.08006,11.3956,12.3148
0.0285,1.98551,1.56986,2.37012,0.721128,6.54041,13.5771,8.2606,11.6502,12.5822
0.029,1.9849,1.62182,2.44544,0.746981,6.71734,13.8549,8.43818,11.9007,12.8446
0.0295,1.98427,1.67441,2.52145,0.773278,6.89379,14.1262,8.61239,12.1464,13.1015
0.03,1.98364,1.72765,2.5982,0.800042,7.06992,14.3911,8.78338,12.3876,13.3528
0.0305,1.98297,1.7814,2.67545,0.827205,7.245,14.6481,8.95025,12.6228,13.5972
0.031,1.98232,1.83595,2.75362,0.854914,7.4202,14.8995,9.11425,12.8543,13.8369
0.0315,1.98165,1.89094,2.8322,0.883001,7.59392,15.1421,9.27377,13.0792,14.069
0.032,1.98098,1.94652,2.91139,0.911545,7.76675,15.3773,9.42932,13.2985,14.2945
0.0325,1.98029,2.00268,2.99115,0.940545,7.93855,15.6046,9.58077,13.5121,14.5133
0.033,1.9796,2.05946,3.07155,0.970023,8.10945,15.8243,9.72833,13.7203,14.7255
0.0335,1.97889,2.11664,3.15224,0.99988,8.27845,16.0346,9.87081,13.9212,14.9295
0.034,1.97819,2.17443,3.23354,1.03022,8.44638,16.237,10.0092,14.1164,15.1268
0.0345,1.97745,2.2327,3.31525,1.06099,8.61266,16.4306,10.1429,14.3049,15.3162
0.035,1.97672,2.29138,3.39727,1.09216,8.77699,16.6147,10.2715,14.4864,15.4976
0.0355,1.97598,2.35064,3.4798,1.12381,8.93992,16.7904,10.3957,14.6615,15.6714
0.036,1.97524,2.41027,3.56256,1.15585,9.10058,16.9565,10.5146,14.8292,15.8369
0.0365,1.97448,2.47032,3.64562,1.18831,9.2592,17.1132,10.6286,14.9899,15.9942
0.037,1.97371,2.53088,3.7291,1.22123,9.41603,17.261,10.7378,15.144,16.1439
0.0375,1.97293,2.59175,3.81269,1.25452,9.57025,17.3986,10.8415,15.2902,16.2846
0.038,1.97216,2.65311,3.89669,1.28829,9.72257,17.5275,10.9404,15.4297,16.4175
0.0385,1.97135,2.71468,3.98055,1.32239,9.87182,17.6456,11.0334,15.5609,16.541
0.039,1.97055,2.77669,4.06473,1.35693,10.0188,17.7544,11.1214,15.6851,16.6565
0.0395,1.96975,2.8391,4.14917,1.3919,10.1635,17.8541,11.2045,15.8022,16.764
0.04,1.96892,2.90174,4.23358,1.42723,10.3052,17.9435,11.2818,15.9112,16.8623
0.0405,1.96809,2.96463,4.31796,1.46294,10.4439,18.0228,11.3535,16.0125,16.9517
0.041,1.96725,3.02777,4.40232,1.49901,10.5796,18.0922,11.4198,16.106,17.0326
0.0415,1.96641,3.09121,4.48674,1.53548,10.7124,18.1523,11.481,16.1922,17.1052
0.042,1.96555,3.15485,4.57106,1.57231,10.8421,18.2023,11.5365,16.2705,17.1689
0.0425,1.96469,3.21897,4.65566,1.60963,10.9695,18.2441,11.5876,16.3426,17.2255
0.043,1.96382,3.28304,4.73984,1.6472,11.0929,18.2749,11.6322,16.4055,17.2719
0.0435,1.96294,3.34726,4.82382,1.6851,11.2128,18.296,11.6714,16.4609,17.3099
0.044,1.96204,3.4117,4.90773,1.72339,11.3296,18.3081,11.7056,16.5091,17.34
0.0445,1.96115,3.47636,4.99154,1.76205,11.4433,18.3112,11.7347,16.5501,17.3622
0.045,1.96025,3.54106,5.075,1.80101,11.5533,18.3046,11.7582,16.5833,17.3757
0.0455,1.95933,3.60599,5.15841,1.84036,11.6602,18.2897,11.777,16.6098,17.3818
0.046,1.95841,3.67098,5.24147,1.88003,11.7634,18.2655,11.7903,16.6286,17.3794
0.0465,1.95749,3.73604,5.32423,1.92001,11.8629,18.2324,11.7985,16.6402,17.369
0.047,1.95655,3.8012,5.40671,1.96032,11.959,18.1909,11.8018,16.6449,17.3512
0.0475,1.95561,3.86642,5.48883,2.00095,12.0514,18.141,11.8002,16.6427,17.3259
0.048,1.95466,3.9316,5.57052,2.04186,12.1401,18.0825,11.7935,16.6333,17.2927
0.0485,1.9537,3.99672,5.65167,2.08302,12.2248,18.0155,11.7818,16.6167,17.2519
0.049,1.95274,4.06199,5.73263,2.12456,12.3062,17.9413,11.7657,16.5942,17.2045
0.0495,1.95178,4.12718,5.81307,2.16636,12.3837,17.8591,11.7448,16.5646,17.1496
0.05,1.9508,4.19222,5.89283,2.20837,12.4571,17.7688,11.7189,16.5281,17.0874
0.0505,1.94981,4.25716,5.97202,2.25062,12.5266,17.6712,11.6886,16.4854,17.0187
0.051,1.94882,4.32216,6.0509,2.29322,12.5927,17.567,11.6543,16.437,16.9438
0.0515,1.94782,4.38704,6.12916,2.33605,12.655,17.4557,11.6155,16.3824,16.8624
0.052,1.94681,4.45173,6.2067,2.37909,12.7131,17.3374,11.5724,16.3216,16.7744
0.0525,1.94579,4.51637,6.28378,2.42241,12.7677,17.2128,11.5252,16.2551,16.6805
0.053,1.94478,4.58089,6.36025,2.46598,12.8185,17.0821,11.4742,16.1832,16.5809
0.0535,1.94376,4.64516,6.43595,2.50972,12.8653,16.9453,11.4192,16.1056,16.4757
0.054,1.94272,4.70912,6.51079,2.5536,12.908,16.802,11.36,16.0222,16.3642
0.0545,1.94167,4.77291,6.58495,2.59771,12.9469,16.6533,11.2971,15.9336,16.2475
0.055,1.94063,4.83666,6.65862,2.64211,12.9825,16.4998,11.2311,15.8406,16.1263
0.0555,1.93959,4.90018,6.73155,2.6867,13.0144,16.3414,11.1617,15.7427,16.0003
0.056,1.93853,4.96326,6.80346,2.73137,13.042,16.1775,11.0885,15.6394,15.8689
0.0565,1.93745,5.02602,6.87447,2.77618,13.0657,16.0087,11.0119,15.5315,15.7327
0.057,1.93638,5.08859,6.94478,2.8212,13.0859,15.8359,10.9325,15.4196,15.5928
0.0575,1.93531,5.15089,7.01433,2.86639,13.1026,15.6591,10.8502,15.3035,15.4487
0.058,1.93422,5.21268,7.08277,2.91162,13.1152,15.4777,10.7645,15.1827,15.3001
0.0585,1.93312,5.27401,7.15012,2.95691,13.1238,15.2924,10.6758,15.0576,15.1472
0.059,1.93202,5.33525,7.21692,3.00247,13.1294,15.1044,10.585,14.9296,14.9916
0.0595,1.93092,5.39621,7.28293,3.04819,13.1317,14.9134,10.4918,14.7982,14.833
0.06,1.92981,5.45651,7.34764,3.09387,13.1298,14.7187,10.3957,14.6627,14.6704
0.0605,1.9287,5.5164,7.41139,3.13964,13.1244,14.5212,10.2972,14.5239,14.5048
0.061,1.92757,5.57598,7.47432,3.18555,13.1159,14.3215,10.1968,14.3823,14.3367
0.0615,1.92645,5.63519,7.53631,3.23157,13.1041,14.1197,10.0943,14.2379,14.1661
0.062,1.92532,5.69387,7.59718,3.27761,13.0887,13.9155,9.9898,14.0905,13.9929
0.0625,1.92417,5.75203,7.65697,3.32367,13.0698,13.7094,9.88331,13.9403,13.8173
0.063,1.92303,5.80969,7.7157,3.36976,13.0477,13.5015,9.77499,13.7876,13.6396
0.0635,1.92188,5.8668,7.77328,3.41587,13.0222,13.2921,9.66498,13.6325,13.4599
0.064,1.92072,5.92337,7.82975,3.46198,12.9936,13.0814,9.55341,13.4752,13.2784
0.0645,1.91956,5.97947,7.88521,3.50813,12.9618,12.8697,9.44047,13.316,13.0954
0.065,1.91839,6.03512,7.93968,3.55433,12.9273,12.6574,9.3264,13.1552,12.9114
0.0655,1.91721,6.09025,7.99306,3.60055,12.8898,12.4445,9.21116,12.9927,12.7262
0.066,1.91604,6.14471,8.04519,3.6467,12.8491,12.2309,9.09465,12.8284,12.5397
0.0665,1.91486,6.19844,8.09603,3.69273,12.8054,12.0168,8.97704,12.6626,12.3521
0.067,1.91367,6.25169,8.14583,3.73879,12.7589,11.8027,8.85853,12.4955,12.1639
0.0675,1.91247,6.30443,8.19457,3.78486,12.7099,11.5888,8.73932,12.3275,11.9752
0.068,1.91127,6.35652,8.24211,3.83087,12.6581,11.3751,8.61944,12.1584,11.7861
0.0685,1.91007,6.4078,8.28827,3.87669,12.6033,11.1615,8.49869,11.9882,11.5964
0.069,1.90885,6.45839,8.33319,3.92241,12.546,10.9484,8.37742,11.8172,11.4065
0.0695,1.90763,6.50841,8.37698,3.96809,12.4863,10.7362,8.25584,11.6458,11.2168
0.07,1.90641,6.5578,8.41962,4.0137,12.4241,10.5247,8.13388,11.4739,11.0272
0.0705,1.90519,6.60662,8.46118,4.05928,12.3598,10.3145,8.01181,11.3018,10.838
0.071,1.90396,6.65462,8.50136,4.10466,12.293,10.1052,7.88947,11.1293,10.649
0.0715,1.90273,6.70184,8.54019,4.14984,12.2237,9.89696,7.76694,10.9565,10.4604
0.072,1.90148,6.74847,8.578,4.19499,12.1525,9.69028,7.64453,10.7839,10.2725
0.0725,1.90023,6.7943,8.61442,4.23993,12.079,9.48496,7.52207,10.6113,10.0853
0.073,1.89898,6.83938,8.64956,4.28471,12.0035,9.28121,7.39975,10.4389,9.89882
0.0735,1.89773,6.88386,8.68366,4.32942,11.9262,9.07936,7.27785,10.267,9.71354
0.074,1.89648,6.9276,8.71652,4.37395,11.847,8.87933,7.15622,10.0955,9.52928
0.0745,1.89522,6.97045,8.74796,4.41821,11.7658,8.68098,7.03478,9.92433,9.34592
0.075,1.89394,7.01246,8.77803,4.46223,11.6826,8.48451,6.91369,9.7536,9.16364
0.0755,1.89266,7.05378,8.80696,4.50612,11.5979,8.29029,6.79322,9.58373,8.98288
0.076,1.89138,7.09438,8.83471,4.54983,11.5117,8.0983,6.67336,9.41471,8.80358
0.0765,1.8901,7.13415,8.86116,4.59328,11.4238,7.90844,6.55402,9.24647,8.62564
0.077,1.88881,7.17303,8.88623,4.63646,11.3343,7.72076,6.43527,9.07909,8.44915
0.0775,1.88753,7.21112,8.91003,4.6794,11.2433,7.53549,6.31726,8.91275,8.27432
0.078,1.88624,7.24843,8.93261,4.72211,11.151,7.3527,6.20008,8.74751,8.1012
0.0785,1.88494,7.28488,8.95389,4.76455,11.0574,7.17233,6.08367,8.58339,7.92976
0.079,1.88362,7.32049,8.97392,4.8067,10.9625,6.99446,5.9681,8.42046,7.76008
0.0795,1.88231,7.35525,8.99267,4.84857,10.8664,6.81917,5.85343,8.25878,7.59227
0.08,1.881,7.38931,9.01032,4.89025,10.7693,6.64662,5.73979,8.09855,7.42649
0.0805,1.87968,7.42261,9.0268,4.93169,10.6714,6.4768,5.62716,7.93979,7.26271
0.081,1.87836,7.45477,9.04162,4.97262,10.572,6.3094,5.51536,7.78219,7.10066
0.0815,1.87703,7.4862,9.05539,5.01335,10.4718,6.14482,5.40473,7.62619,6.94075
0.082,1.8757,7.51667,9.06781,5.05368,10.3706,5.9829,5.2951,7.47162,6.78285
0.0825,1.87436,7.54645,9.07921,5.0938,10.2689,5.82391,5.18669,7.31881,6.62719
0.083,1.87302,7.57543,9.08943,5.13364,10.1665,5.66775,5.07949,7.16767,6.47374
0.0835,1.87168,7.60329,9.0981,5.17295,10.0631,5.51417,4.97334,7.01796,6.32225
0.084,1.87033,7.63027,9.10557,5.21191,9.95902,5.36341,4.86835,6.86996,6.17291
0.0845,1.86897,7.65656,9.112,5.25065,9.85459,5.2156,4.76471,6.72383,6.02597
0.085,1.86762,7.68182,9.11709,5.28893,9.74949,5.07053,4.66226,6.5794,5.88114
0.0855,1.86627,7.70677,9.12158,5.32722,9.64458,4.9286,4.5614,6.43723,5.73898
0.086,1.8649,7.73043,9.1244,5.36486,9.53875,4.78923,4.46161,6.29653,5.59875
0.0865,1.86353,7.75289,9.1257,5.40189,9.43219,4.65251,4.36296,6.15745,5.46058
0.087,1.86217,7.7747,9.1261,5.43868,9.32562,4.51875,4.26579,6.02047,5.3249
0.0875,1.8608,7.79582,9.12554,5.47522,9.21898,4.38789,4.17007,5.88551,5.19159
0.088,1.85941,7.81592,9.12361,5.51126,9.11198,4.25973,4.07565,5.75238,5.0605
0.0885,1.85802,7.83498,9.12036,5.54677,9.00466,4.13426,3.98253,5.6211,4.93165
0.089,1.85664,7.85332,9.11624,5.582,8.89742,4.01166,3.8909,5.49192,4.80522
0.0895,1.85524,7.87076,9.11089,5.61679,8.79008,3.89177,3.80064,5.36467,4.68105
0.09,1.85385,7.88726,9.10433,5.65111,8.68266,3.77455,3.71174,5.23933,4.55911
0.0905,1.85246,7.90306,9.09689,5.68512,8.57546,3.66015,3.62435,5.11612,4.43962
0.091,1.85106,7.91796,9.08832,5.7187,8.46833,3.54841,3.53835,4.99488,4.32241
0.0915,1.84965,7.93178,9.07844,5.75167,8.36106,3.43918,3.45366,4.87547,4.20732
0.092,1.84825,7.94472,9.0675,5.7842,8.25393,3.33258,3.37037,4.75804,4.09448
0.0925,1.84684,7.95699,9.0557,5.81642,8.14719,3.22868,3.28858,4.64274,3.98404
0.093,1.84542,7.96836,9.0428,5.84817,8.04069,3.12733,3.2082,4.52941,3.87585
0.0935,1.844,7.97868,9.02866,5.87932,7.93429,3.02841,3.12915,4.41795,3.76979
0.094,1.84257,7.98806,9.01349,5.90995,7.82811,2.93195,3.05148,4.30845,3.6659
0.0945,1.84116,7.99688,8.99753,5.94034,7.72256,2.8381,2.97533,4.20108,3.56435
0.095,1.83972,8.00462,8.98039,5.97007,7.61717,2.74658,2.90048,4.09555,3.46489
0.0955,1.83829,8.01156,8.9623,5.99938,7.51226,2.65747,2.82705,3.99203,3.36761
0.096,1.83685,8.0178,8.94337,6.02831,7.40792,2.57076,2.75505,3.89051,3.27251
0.0965,1.83541,8.023,8.92326,6.05663,7.30385,2.48629,2.68435,3.79084,3.17945
0.097,1.83396,8.02718,8.902,6.08432,7.20017,2.40406,2.61497,3.69302,3.08841
0.0975,1.83252,8.03096,8.88036,6.11186,7.09739,2.3242,2.5471,3.59732,2.99962
0.098,1.83107,8.03365,8.85746,6.13869,6.99495,2.24648,2.48049,3.50342,2.91278
0.0985,1.82961,8.03541,8.83351,6.16494,6.893,2.17088,2.41519,3.41135,2.82792
0.099,1.82815,8.03678,8.8092,6.19103,6.79202,2.09751,2.35134,3.32133,2.74518
0.0995,1.8267,8.03697,8.78358,6.21633,6.69138,2.02614,2.28871,3.23303,2.6643
0.1,1.82524,8.03632,8.75712,6.2411,6.59144,1.95686,2.22742,3.14662,2.58541
0.1005,1.82377,8.03479,8.72966,6.2653,6.49206,1.8895,2.16735,3.06192,2.50834
0.101,1.8223,8.03281,8.70175,6.2893,6.39357,1.82413,2.10861,2.9791,2.43319
0.1015,1.82083,8.02973,8.67272,6.31254,6.29565,1.76067,2.05111,2.89802,2.35989
0.102,1.81935,8.02591,8.64294,6.33524,6.19863,1.69918,1.99493,2.81883,2.2885
0.1025,1.81788,8.02151,8.61258,6.35763,6.10242,1.6395,1.93998,2.74135,2.21888
0.103,1.81639,8.01614,8.58119,6.37939,6.00672,1.58151,1.88613,2.66542,2.15089
0.1035,1.8149,8.01011,8.54922,6.40061,5.91217,1.52547,1.83368,2.59147,2.08487
0.104,1.81342,8.00322,8.51636,6.42132,5.81812,1.47099,1.78225,2.51896,2.02035
0.1045,1.81192,7.99551,8.48272,6.44141,5.72498,1.41825,1.73206,2.44818,1.95759
0.105,1.81042,7.98693,8.44823,6.46088,5.63258,1.36712,1.68299,2.379,1.89643
0.1055,1.80892,7.9776,8.413,6.47985,5.54091,1.31753,1.635,2.31133,1.83682
0.106,1.80742,7.96782,8.37741,6.49848,5.45044,1.26963,1.58825,2.24543,1.77894
0.1065,1.80592,7.95736,8.3412,6.51659,5.36091,1.22328,1.54264,2.18112,1.72265
0.107,1.80441,7.94587,8.30399,6.53398,5.27196,1.1783,1.498,2.11818,1.66775
0.1075,1.80289,7.93372,8.26619,6.5509,5.1839,1.13478,1.45443,2.05674,1.61434
0.108,1.80138,7.92119,8.22811,6.56753,5.09704,1.09273,1.41199,1.9969,1.5625
0.1085,1.79986,7.90782,8.18928,6.58348,5.01102,1.05207,1.37058,1.93852,1.51209
0.109,1.79834,7.89351,8.1496,6.59871,4.92577,1.01272,1.33016,1.88152,1.46305
0.1095,1.79682,7.87866,8.10948,6.61351,4.84156,0.974685,1.29075,1.82596,1.4154
0.11,1.7953,7.86313,8.06877,6.62778,4.75825,0.937906,1.25231,1.77176,1.36908
0.1105,1.79376,7.84689,8.02744,6.64149,4.67577,0.902332,1.21481,1.71887,1.32404
0.111,1.79223,7.83003,7.98564,6.65469,4.59435,0.868007,1.17831,1.66741,1.28036
0.1115,1.7907,7.81263,7.94343,6.66743,4.51399,0.834869,1.14276,1.6173,1.23796
0.112,1.78914,7.79456,7.90064,6.67963,4.43448,0.802819,1.10809,1.56841,1.19673
0.1125,1.7876,7.77567,7.85719,6.69112,4.35587,0.771884,1.07433,1.5208,1.15672
0.113,1.78607,7.75621,7.81332,6.70215,4.27823,0.74202,1.04145,1.47444,1.11788
0.1135,1.78452,7.73616,7.76902,6.71265,4.2016,0.713205,1.00945,1.42932,1.08021
0.114,1.78297,7.7155,7.72428,6.72259,4.12597,0.685415,0.978322,1.38542,1.04367
0.1145,1.78141,7.69452,7.67932,6.73229,4.05134,0.658585,0.948014,1.34269,1.00821
0.115,1.77985,7.67274,7.63372,6.74128,3.97756,0.632687,0.918491,1.30106,0.973787
0.1155,1.77828,7.65005,7.58743,6.74942,3.90466,0.607719,0.889763,1.26056,0.940411
0.116,1.77672,7.62722,7.54118,6.7574,3.83295,0.583678,0.861868,1.22123,0.908102
0.1165,1.77516,7.604,7.4947,6.76503,3.76226,0.560507,0.834748,1.18298,0.876792
0.117,1.7736,7.57981,7.44742,6.77175,3.69229,0.538138,0.808319,1.14572,0.846391
0.1175,1.77202,7.55507,7.39984,6.77794,3.62337,0.516602,0.782642,1.10951,0.816967
0.118,1.77044,7.53004,7.35213,6.78381,3.55552,0.495869,0.757704,1.07435,0.788477
0.1185,1.76886,7.50427,7.30388,6.78898,3.48846,0.475871,0.733426,1.04011,0.76084
0.119,1.76728,7.47813,7.25547,6.79378,3.42244,0.456621,0.709851,1.00687,0.734091
0.1195,1.7657,7.4515,7.20676,6.79808,3.35736,0.438082,0.686939,0.974554,0.708183
0.12,1.76411,7.42427,7.15767,6.80178,3.29317,0.420229,0.66467,0.943147,0.683089
0.1205,1.76252,7.39659,7.10837,6.80499,3.22997,0.403061,0.643059,0.912662,0.658817
0.121,1.76093,7.36853,7.0589,6.80777,3.16775,0.386537,0.622079,0.883059,0.63533
0.1215,1.75934,7.33994,7.00911,6.81001,3.10638,0.370622,0.601694,0.854287,0.61258
0.122,1.75773,7.3107,6.9589,6.81158,3.04586,0.355304,0.581899,0.826327,0.590551
0.1225,1.75612,7.28118,6.90865,6.81274,2.98639,0.340596,0.562734,0.799235,0.569283
0.123,1.75452,7.25145,6.85842,6.81368,2.92789,0.32645,0.544157,0.772942,0.548709
0.1235,1.75292,7.22113,6.80783,6.81397,2.87024,0.312844,0.52616,0.747416,0.528808
0.124,1.7513,7.1901,6.75678,6.81345,2.8134,0.299758,0.50873,0.722628,0.509551
0.1245,1.74969,7.15878,6.70567,6.81264,2.75745,0.287171,0.491876,0.698567,0.490919
0.125,1.74807,7.12728,6.65462,6.81145,2.70254,0.2751,0.475656,0.675279,0.472954
0.1255,1.74645,7.09514,6.6032,6.80959,2.64838,0.263484,0.460022,0.652653,0.455561
